# 1) Radius of the zone in units of one solar radius
# 2) Fraction of florine 17 neutrinos produced in the zone
 0.00041    4.384e-06
 0.00082    1.274e-05
 0.00123    2.109e-05
 0.00164    3.258e-05
 0.00205    4.860e-05
 0.00246    6.779e-05
 0.00287    9.013e-05
 0.00328    1.156e-04
 0.00369    1.442e-04
 0.00410    1.759e-04
 0.00451    2.106e-04
 0.00492    2.483e-04
 0.00533    2.890e-04
 0.00574    3.326e-04
 0.00615    3.791e-04
 0.00656    4.285e-04
 0.00697    4.806e-04
 0.00738    5.355e-04
 0.00779    5.931e-04
 0.00820    6.533e-04
 0.00861    7.161e-04
 0.00902    7.814e-04
 0.00943    8.492e-04
 0.00984    9.193e-04
 0.01025    9.918e-04
 0.01066    1.066e-03
 0.01107    1.143e-03
 0.01148    1.222e-03
 0.01189    1.303e-03
 0.01230    1.386e-03
 0.01270    1.471e-03
 0.01311    1.558e-03
 0.01352    1.646e-03
 0.01393    1.736e-03
 0.01434    1.827e-03
 0.01475    1.920e-03
 0.01516    2.014e-03
 0.01557    2.110e-03
 0.01598    2.206e-03
 0.01639    2.304e-03
 0.01680    2.403e-03
 0.01721    2.503e-03
 0.01762    2.603e-03
 0.01803    2.704e-03
 0.01844    2.806e-03
 0.01885    2.908e-03
 0.01926    3.011e-03
 0.01967    3.114e-03
 0.02008    3.218e-03
 0.02049    3.321e-03
 0.02090    3.425e-03
 0.02131    3.528e-03
 0.02172    3.632e-03
 0.02213    3.735e-03
 0.02254    3.838e-03
 0.02295    3.941e-03
 0.02336    4.043e-03
 0.02377    4.145e-03
 0.02418    4.246e-03
 0.02459    4.346e-03
 0.02500    4.446e-03
 0.02541    4.544e-03
 0.02582    4.642e-03
 0.02623    4.739e-03
 0.02664    4.834e-03
 0.02705    4.928e-03
 0.02746    5.022e-03
 0.02787    5.113e-03
 0.02828    5.204e-03
 0.02869    5.293e-03
 0.02910    5.380e-03
 0.02951    5.466e-03
 0.02992    5.550e-03
 0.03033    5.633e-03
 0.03074    5.713e-03
 0.03115    5.792e-03
 0.03156    5.869e-03
 0.03197    5.944e-03
 0.03238    6.017e-03
 0.03279    6.089e-03
 0.03320    6.158e-03
 0.03361    6.225e-03
 0.03402    6.289e-03
 0.03443    6.352e-03
 0.03484    6.413e-03
 0.03525    6.471e-03
 0.03566    6.527e-03
 0.03607    6.581e-03
 0.03648    6.632e-03
 0.03689    6.681e-03
 0.03730    6.728e-03
 0.03770    6.772e-03
 0.03811    6.814e-03
 0.03852    6.854e-03
 0.03893    6.891e-03
 0.03934    6.926e-03
 0.03975    6.959e-03
 0.04016    6.989e-03
 0.04057    7.017e-03
 0.04098    7.042e-03
 0.04139    7.065e-03
 0.04180    7.085e-03
 0.04221    7.103e-03
 0.04262    7.119e-03
 0.04303    7.132e-03
 0.04344    7.144e-03
 0.04385    7.153e-03
 0.04426    7.158e-03
 0.04467    7.163e-03
 0.04508    7.165e-03
 0.04549    7.164e-03
 0.04590    7.162e-03
 0.04631    7.157e-03
 0.04672    7.150e-03
 0.04713    7.141e-03
 0.04754    7.130e-03
 0.04795    7.116e-03
 0.04836    7.101e-03
 0.04877    7.083e-03
 0.04918    7.064e-03
 0.04959    7.043e-03
 0.05000    7.020e-03
 0.05041    6.995e-03
 0.05082    6.968e-03
 0.05123    6.939e-03
 0.05164    6.909e-03
 0.05205    6.877e-03
 0.05246    6.843e-03
 0.05287    6.808e-03
 0.05328    6.771e-03
 0.05369    6.733e-03
 0.05410    6.693e-03
 0.05451    6.652e-03
 0.05492    6.609e-03
 0.05533    6.565e-03
 0.05574    6.519e-03
 0.05615    6.472e-03
 0.05656    6.425e-03
 0.05697    6.376e-03
 0.05738    6.326e-03
 0.05779    6.274e-03
 0.05820    6.222e-03
 0.05861    6.168e-03
 0.05902    6.114e-03
 0.05943    6.059e-03
 0.05984    6.003e-03
 0.06025    5.946e-03
 0.06066    5.889e-03
 0.06107    5.830e-03
 0.06148    5.771e-03
 0.06189    5.712e-03
 0.06230    5.652e-03
 0.06270    5.591e-03
 0.06311    5.530e-03
 0.06352    5.468e-03
 0.06393    5.406e-03
 0.06434    5.343e-03
 0.06475    5.280e-03
 0.06516    5.217e-03
 0.06557    5.153e-03
 0.06598    5.089e-03
 0.06639    5.025e-03
 0.06680    4.961e-03
 0.06721    4.897e-03
 0.06762    4.832e-03
 0.06803    4.768e-03
 0.06844    4.704e-03
 0.06885    4.639e-03
 0.06926    4.574e-03
 0.06967    4.510e-03
 0.07008    4.446e-03
 0.07049    4.381e-03
 0.07090    4.317e-03
 0.07131    4.253e-03
 0.07172    4.190e-03
 0.07213    4.126e-03
 0.07254    4.063e-03
 0.07295    4.000e-03
 0.07336    3.937e-03
 0.07377    3.874e-03
 0.07418    3.812e-03
 0.07459    3.751e-03
 0.07500    3.689e-03
 0.07541    3.628e-03
 0.07582    3.568e-03
 0.07623    3.508e-03
 0.07664    3.448e-03
 0.07705    3.389e-03
 0.07746    3.330e-03
 0.07787    3.272e-03
 0.07828    3.214e-03
 0.07869    3.157e-03
 0.07910    3.100e-03
 0.07951    3.044e-03
 0.07992    2.988e-03
 0.08033    2.933e-03
 0.08074    2.879e-03
 0.08115    2.825e-03
 0.08156    2.771e-03
 0.08197    2.719e-03
 0.08238    2.667e-03
 0.08279    2.615e-03
 0.08320    2.564e-03
 0.08361    2.514e-03
 0.08402    2.464e-03
 0.08443    2.415e-03
 0.08484    2.367e-03
 0.08525    2.319e-03
 0.08566    2.272e-03
 0.08607    2.225e-03
 0.08648    2.180e-03
 0.08689    2.134e-03
 0.08730    2.090e-03
 0.08770    2.046e-03
 0.08811    2.003e-03
 0.08852    1.960e-03
 0.08893    1.918e-03
 0.08934    1.877e-03
 0.08975    1.836e-03
 0.09016    1.796e-03
 0.09057    1.757e-03
 0.09098    1.718e-03
 0.09139    1.680e-03
 0.09180    1.642e-03
 0.09221    1.606e-03
 0.09262    1.569e-03
 0.09303    1.534e-03
 0.09344    1.499e-03
 0.09385    1.465e-03
 0.09426    1.431e-03
 0.09467    1.398e-03
 0.09508    1.365e-03
 0.09549    1.333e-03
 0.09590    1.302e-03
 0.09631    1.271e-03
 0.09672    1.241e-03
 0.09713    1.211e-03
 0.09754    1.182e-03
 0.09795    1.154e-03
 0.09836    1.126e-03
 0.09877    1.098e-03
 0.09918    1.071e-03
 0.09959    1.045e-03
 0.10000    1.019e-03
 0.10041    9.941e-04
 0.10082    9.693e-04
 0.10123    9.451e-04
 0.10164    9.214e-04
 0.10205    8.981e-04
 0.10246    8.754e-04
 0.10287    8.531e-04
 0.10328    8.313e-04
 0.10369    8.100e-04
 0.10410    7.892e-04
 0.10451    7.687e-04
 0.10492    7.488e-04
 0.10533    7.293e-04
 0.10574    7.102e-04
 0.10615    6.916e-04
 0.10656    6.733e-04
 0.10697    6.555e-04
 0.10738    6.381e-04
 0.10779    6.211e-04
 0.10820    6.044e-04
 0.10861    5.882e-04
 0.10902    5.723e-04
 0.10943    5.569e-04
 0.10984    5.417e-04
 0.11025    5.270e-04
 0.11066    5.126e-04
 0.11107    4.985e-04
 0.11148    4.848e-04
 0.11189    4.714e-04
 0.11230    4.583e-04
 0.11270    4.456e-04
 0.11311    4.331e-04
 0.11352    4.210e-04
 0.11393    4.092e-04
 0.11434    3.976e-04
 0.11475    3.864e-04
 0.11516    3.754e-04
 0.11557    3.647e-04
 0.11598    3.543e-04
 0.11639    3.442e-04
 0.11680    3.343e-04
 0.11721    3.247e-04
 0.11762    3.153e-04
 0.11803    3.062e-04
 0.11844    2.973e-04
 0.11885    2.886e-04
 0.11926    2.802e-04
 0.11967    2.719e-04
 0.12008    2.639e-04
 0.12049    2.562e-04
 0.12090    2.486e-04
 0.12131    2.412e-04
 0.12172    2.340e-04
 0.12213    2.271e-04
 0.12254    2.203e-04
 0.12295    2.137e-04
 0.12336    2.072e-04
 0.12377    2.010e-04
 0.12418    1.949e-04
 0.12459    1.890e-04
 0.12500    1.833e-04
 0.12541    1.777e-04
 0.12582    1.723e-04
 0.12623    1.670e-04
 0.12664    1.619e-04
 0.12705    1.569e-04
 0.12746    1.520e-04
 0.12787    1.474e-04
 0.12828    1.428e-04
 0.12869    1.383e-04
 0.12910    1.340e-04
 0.12951    1.299e-04
 0.12992    1.258e-04
 0.13033    1.218e-04
 0.13074    1.180e-04
 0.13115    1.143e-04
 0.13156    1.107e-04
 0.13197    1.072e-04
 0.13238    1.038e-04
 0.13279    1.005e-04
 0.13320    9.727e-05
 0.13361    9.417e-05
 0.13402    9.115e-05
 0.13443    8.823e-05
 0.13484    8.539e-05
 0.13525    8.264e-05
 0.13566    7.997e-05
 0.13607    7.738e-05
 0.13648    7.487e-05
 0.13689    7.244e-05
 0.13730    7.008e-05
 0.13770    6.779e-05
 0.13811    6.558e-05
 0.13852    6.343e-05
 0.13893    6.135e-05
 0.13934    5.933e-05
 0.13975    5.737e-05
 0.14016    5.548e-05
 0.14057    5.364e-05
 0.14098    5.186e-05
 0.14139    5.014e-05
 0.14180    4.847e-05
 0.14221    4.685e-05
 0.14262    4.529e-05
 0.14303    4.377e-05
 0.14344    4.231e-05
 0.14385    4.088e-05
 0.14426    3.951e-05
 0.14467    3.818e-05
 0.14508    3.689e-05
 0.14549    3.564e-05
 0.14590    3.443e-05
 0.14631    3.326e-05
 0.14672    3.213e-05
 0.14713    3.103e-05
 0.14754    2.997e-05
 0.14795    2.895e-05
 0.14836    2.796e-05
 0.14877    2.700e-05
 0.14918    2.607e-05
 0.14959    2.517e-05
 0.15000    2.430e-05
 0.15041    2.347e-05
 0.15082    2.265e-05
 0.15123    2.187e-05
 0.15164    2.111e-05
 0.15205    2.038e-05
 0.15246    1.967e-05
 0.15287    1.898e-05
 0.15328    1.832e-05
 0.15369    1.768e-05
 0.15410    1.706e-05
 0.15451    1.646e-05
 0.15492    1.588e-05
 0.15533    1.532e-05
 0.15574    1.478e-05
 0.15615    1.426e-05
 0.15656    1.376e-05
 0.15697    1.327e-05
 0.15738    1.280e-05
 0.15779    1.235e-05
 0.15820    1.191e-05
 0.15861    1.149e-05
 0.15902    1.108e-05
 0.15943    1.068e-05
 0.15984    1.030e-05
 0.16025    9.932e-06
 0.16066    9.577e-06
 0.16107    9.233e-06
 0.16148    8.902e-06
 0.16189    8.582e-06
 0.16230    8.273e-06
 0.16270    7.975e-06
 0.16311    7.688e-06
 0.16352    7.410e-06
 0.16393    7.143e-06
 0.16434    6.884e-06
 0.16475    6.634e-06
 0.16516    6.394e-06
 0.16557    6.161e-06
 0.16598    5.938e-06
 0.16639    5.721e-06
 0.16680    5.513e-06
 0.16721    5.312e-06
 0.16762    5.118e-06
 0.16803    4.931e-06
 0.16844    4.750e-06
 0.16885    4.576e-06
 0.16926    4.408e-06
 0.16967    4.246e-06
 0.17008    4.090e-06
 0.17049    3.940e-06
 0.17090    3.795e-06
 0.17131    3.655e-06
 0.17172    3.520e-06
 0.17213    3.390e-06
 0.17254    3.264e-06
 0.17295    3.144e-06
 0.17336    3.027e-06
 0.17377    2.915e-06
 0.17418    2.806e-06
 0.17459    2.702e-06
 0.17500    2.602e-06
 0.17541    2.505e-06
 0.17582    2.411e-06
 0.17623    2.321e-06
 0.17664    2.235e-06
 0.17705    2.151e-06
 0.17746    2.071e-06
 0.17787    1.993e-06
 0.17828    1.918e-06
 0.17869    1.846e-06
 0.17910    1.777e-06
 0.17951    1.710e-06
 0.17992    1.646e-06
 0.18033    1.584e-06
 0.18074    1.524e-06
 0.18115    1.467e-06
 0.18156    1.411e-06
 0.18197    1.358e-06
 0.18238    1.307e-06
 0.18279    1.257e-06
 0.18320    1.210e-06
 0.18361    1.164e-06
 0.18402    1.119e-06
 0.18443    1.077e-06
 0.18484    1.036e-06
 0.18525    9.966e-07
 0.18566    9.586e-07
 0.18607    9.221e-07
 0.18648    8.869e-07
 0.18689    8.531e-07
 0.18730    8.205e-07
 0.18770    7.890e-07
 0.18811    7.589e-07
 0.18852    7.299e-07
 0.18893    7.018e-07
 0.18934    6.750e-07
 0.18975    6.491e-07
 0.19016    6.241e-07
 0.19057    6.001e-07
 0.19098    5.770e-07
 0.19139    5.548e-07
 0.19180    5.334e-07
 0.19221    5.129e-07
 0.19262    4.931e-07
 0.19303    4.740e-07
 0.19344    4.557e-07
 0.19385    4.381e-07
 0.19426    4.211e-07
 0.19467    4.048e-07
 0.19508    3.891e-07
 0.19549    3.740e-07
 0.19590    3.595e-07
 0.19631    3.456e-07
 0.19672    3.321e-07
 0.19713    3.192e-07
 0.19754    3.068e-07
 0.19795    2.949e-07
 0.19836    2.834e-07
 0.19877    2.723e-07
 0.19918    2.617e-07
 0.19959    2.515e-07
 0.20000    2.417e-07
 0.20041    2.322e-07
 0.20082    2.231e-07
 0.20123    2.144e-07
 0.20164    2.060e-07
 0.20205    1.979e-07
 0.20246    1.902e-07
 0.20287    1.827e-07
 0.20328    1.755e-07
 0.20369    1.686e-07
 0.20410    1.620e-07
 0.20451    1.556e-07
 0.20492    1.495e-07
 0.20533    1.436e-07
 0.20574    1.380e-07
 0.20615    1.325e-07
 0.20656    1.273e-07
 0.20697    1.223e-07
 0.20738    1.175e-07
 0.20779    1.128e-07
 0.20820    1.084e-07
 0.20861    1.041e-07
 0.20902    9.995e-08
 0.20943    9.600e-08
 0.20984    9.220e-08
 0.21025    8.854e-08
 0.21066    8.503e-08
 0.21107    8.166e-08
 0.21148    7.842e-08
 0.21189    7.531e-08
 0.21230    7.231e-08
 0.21270    6.945e-08
 0.21311    6.668e-08
 0.21352    6.402e-08
 0.21393    6.148e-08
 0.21434    5.904e-08
 0.21475    5.668e-08
 0.21516    5.442e-08
 0.21557    5.225e-08
 0.21598    5.017e-08
 0.21639    4.816e-08
 0.21680    4.623e-08
 0.21721    4.439e-08
 0.21762    4.262e-08
 0.21803    4.091e-08
 0.21844    3.927e-08
 0.21885    3.770e-08
 0.21926    3.619e-08
 0.21967    3.474e-08
 0.22008    3.335e-08
 0.22049    3.201e-08
 0.22090    3.073e-08
 0.22131    2.949e-08
 0.22172    2.831e-08
 0.22213    2.717e-08
 0.22254    2.608e-08
 0.22295    2.504e-08
 0.22336    2.404e-08
 0.22377    2.307e-08
 0.22418    2.214e-08
 0.22459    2.124e-08
 0.22500    2.038e-08
 0.22541    1.957e-08
 0.22582    1.878e-08
 0.22623    1.802e-08
 0.22664    1.729e-08
 0.22705    1.660e-08
 0.22746    1.593e-08
 0.22787    1.528e-08
 0.22828    1.466e-08
 0.22869    1.407e-08
 0.22910    1.350e-08
 0.22951    1.296e-08
 0.22992    1.243e-08
 0.23033    1.193e-08
 0.23074    1.145e-08
 0.23115    1.098e-08
 0.23156    1.054e-08
 0.23197    1.011e-08
 0.23238    9.701e-09
 0.23279    9.309e-09
 0.23320    8.931e-09
 0.23361    8.567e-09
 0.23402    8.220e-09
 0.23443    7.887e-09
 0.23484    7.566e-09
 0.23525    7.258e-09
 0.23566    6.963e-09
 0.23607    6.681e-09
 0.23648    6.409e-09
 0.23689    6.148e-09
 0.23730    5.898e-09
 0.23770    5.659e-09
 0.23811    5.428e-09
 0.23852    5.207e-09
 0.23893    4.994e-09
 0.23934    4.791e-09
 0.23975    4.596e-09
 0.24016    4.408e-09
 0.24057    4.228e-09
 0.24098    4.057e-09
 0.24139    3.892e-09
 0.24180    3.732e-09
 0.24221    3.579e-09
 0.24262    3.435e-09
 0.24303    3.297e-09
 0.24344    3.163e-09
 0.24385    3.033e-09
 0.24426    2.909e-09
 0.24467    2.789e-09
 0.24508    2.674e-09
 0.24549    2.564e-09
 0.24590    2.459e-09
 0.24631    2.359e-09
 0.24672    2.262e-09
 0.24713    2.169e-09
 0.24754    2.081e-09
 0.24795    1.997e-09
 0.24836    1.917e-09
 0.24877    1.839e-09
 0.24918    1.763e-09
 0.24959    1.690e-09
 0.25000    1.620e-09
 0.25041    1.553e-09
 0.25082    1.488e-09
 0.25123    1.428e-09
 0.25164    1.370e-09
 0.25205    1.314e-09
 0.25246    1.261e-09
 0.25287    1.209e-09
 0.25328    1.159e-09
 0.25369    1.111e-09
 0.25410    1.065e-09
 0.25451    1.021e-09
 0.25492    9.789e-10
 0.25533    9.386e-10
 0.25574    9.000e-10
 0.25615    8.628e-10
 0.25656    8.277e-10
 0.25697    7.941e-10
 0.25738    7.617e-10
 0.25779    7.304e-10
 0.25820    7.004e-10
 0.25861    6.714e-10
 0.25902    6.435e-10
 0.25943    6.167e-10
 0.25984    5.910e-10
 0.26025    5.668e-10
 0.26066    5.436e-10
 0.26107    5.211e-10
 0.26148    4.996e-10
 0.26189    4.789e-10
 0.26230    4.595e-10
 0.26270    4.408e-10
 0.26311    4.228e-10
 0.26352    4.054e-10
 0.26393    3.886e-10
 0.26434    3.724e-10
 0.26475    3.569e-10
 0.26516    3.420e-10
 0.26557    3.278e-10
 0.26598    3.143e-10
 0.26639    3.014e-10
 0.26680    2.890e-10
 0.26721    2.770e-10
 0.26762    2.655e-10
 0.26803    2.548e-10
 0.26844    2.445e-10
 0.26885    2.345e-10
 0.26926    2.249e-10
 0.26967    2.156e-10
 0.27008    2.066e-10
 0.27049    1.980e-10
 0.27090    1.896e-10
 0.27131    1.817e-10
 0.27172    1.742e-10
 0.27213    1.672e-10
 0.27254    1.604e-10
 0.27295    1.538e-10
 0.27336    1.475e-10
 0.27377    1.414e-10
 0.27418    1.355e-10
 0.27459    1.298e-10
 0.27500    1.243e-10
 0.27541    1.191e-10
 0.27582    1.142e-10
 0.27623    1.096e-10
 0.27664    1.051e-10
 0.27705    1.008e-10
 0.27746    9.667e-11
 0.27787    9.265e-11
 0.27828    8.879e-11
 0.27869    8.506e-11
 0.27910    8.147e-11
 0.27951    7.803e-11
 0.27992    7.480e-11
 0.28033    7.180e-11
 0.28074    6.889e-11
 0.28115    6.607e-11
 0.28156    6.335e-11
 0.28197    6.073e-11
 0.28238    5.819e-11
 0.28279    5.575e-11
 0.28320    5.340e-11
 0.28361    5.114e-11
 0.28402    4.897e-11
 0.28443    4.700e-11
 0.28484    4.511e-11
 0.28525    4.328e-11
 0.28566    4.151e-11
 0.28607    3.979e-11
 0.28648    3.813e-11
 0.28689    3.654e-11
 0.28730    3.501e-11
 0.28770    3.353e-11
 0.28811    3.210e-11
 0.28852    3.075e-11
 0.28893    2.952e-11
 0.28934    2.833e-11
 0.28975    2.718e-11
 0.29016    2.607e-11
 0.29057    2.499e-11
 0.29098    2.395e-11
 0.29139    2.295e-11
 0.29180    2.198e-11
 0.29221    2.105e-11
 0.29262    2.016e-11
 0.29303    1.930e-11
 0.29344    1.853e-11
 0.29385    1.779e-11
 0.29426    1.707e-11
 0.29467    1.637e-11
 0.29508    1.570e-11
 0.29549    1.504e-11
 0.29590    1.442e-11
 0.29631    1.381e-11
 0.29672    1.323e-11
 0.29713    1.266e-11
 0.29754    1.213e-11
 0.29795    1.162e-11
 0.29836    1.116e-11
 0.29877    1.071e-11
 0.29918    1.028e-11
 0.29959    9.857e-12
 0.30000    9.449e-12
 0.30041    9.057e-12
 0.30082    8.678e-12
 0.30123    8.313e-12
 0.30164    7.961e-12
 0.30205    7.622e-12
 0.30246    7.297e-12
 0.30287    6.999e-12
 0.30328    6.719e-12
 0.30369    6.449e-12
 0.30410    6.187e-12
 0.30451    5.934e-12
 0.30492    5.690e-12
 0.30533    5.453e-12
 0.30574    5.225e-12
 0.30615    5.006e-12
 0.30656    4.794e-12
 0.30697    4.591e-12
 0.30738    4.395e-12
 0.30779    4.211e-12
 0.30820    4.043e-12
 0.30861    3.880e-12
 0.30902    3.722e-12
 0.30943    3.570e-12
 0.30984    3.423e-12
 0.31025    3.281e-12
 0.31066    3.144e-12
 0.31107    3.012e-12
 0.31148    2.885e-12
 0.31189    2.763e-12
 0.31230    2.646e-12
 0.31270    2.537e-12
 0.31311    2.435e-12
 0.31352    2.336e-12
 0.31393    2.241e-12
 0.31434    2.149e-12
 0.31475    2.060e-12
 0.31516    1.974e-12
 0.31557    1.891e-12
 0.31598    1.812e-12
 0.31639    1.736e-12
 0.31680    1.662e-12
 0.31721    1.594e-12
 0.31762    1.530e-12
 0.31803    1.467e-12
 0.31844    1.407e-12
 0.31885    1.349e-12
 0.31926    1.293e-12
 0.31967    1.239e-12
 0.32008    1.187e-12
 0.32049    1.137e-12
 0.32090    1.090e-12
 0.32131    1.046e-12
 0.32172    1.003e-12
 0.32213    9.617e-13
 0.32254    9.220e-13
 0.32295    8.838e-13
 0.32336    8.470e-13
 0.32377    8.117e-13
 0.32418    7.778e-13
 0.32459    7.461e-13
 0.32500    7.157e-13
 0.32541    6.862e-13
 0.32582    6.578e-13
 0.32623    6.306e-13
 0.32664    6.043e-13
 0.32705    5.792e-13
 0.32746    5.558e-13
 0.32787    5.332e-13
 0.32828    5.113e-13
 0.32869    4.902e-13
 0.32910    4.698e-13
 0.32951    4.503e-13
 0.32992    4.314e-13
 0.33033    4.140e-13
 0.33074    3.974e-13
 0.33115    3.813e-13
 0.33156    3.658e-13
 0.33197    3.509e-13
 0.33238    3.364e-13
 0.33279    3.225e-13
 0.33320    3.091e-13
 0.33361    2.961e-13
 0.33402    2.837e-13
 0.33443    2.718e-13
 0.33484    2.604e-13
 0.33525    2.499e-13
 0.33566    2.398e-13
 0.33607    2.301e-13
 0.33648    2.206e-13
 0.33689    2.115e-13
 0.33730    2.027e-13
 0.33770    1.943e-13
 0.33811    1.861e-13
 0.33852    1.786e-13
 0.33893    1.716e-13
 0.33934    1.648e-13
 0.33975    1.582e-13
 0.34016    1.518e-13
 0.34057    1.457e-13
 0.34098    1.397e-13
 0.34139    1.339e-13
 0.34180    1.284e-13
 0.34221    1.230e-13
 0.34262    1.178e-13
 0.34303    1.128e-13
 0.34344    1.080e-13
 0.34385    1.034e-13
 0.34426    9.938e-14
 0.34467    9.550e-14
 0.34508    9.174e-14
 0.34549    8.809e-14
 0.34590    8.456e-14
 0.34631    8.114e-14
 0.34672    7.782e-14
 0.34713    7.462e-14
 0.34754    7.153e-14
 0.34795    6.854e-14
 0.34836    6.565e-14
 0.34877    6.287e-14
 0.34918    6.019e-14
 0.34959    5.762e-14
 0.35000    5.513e-14
 0.35041    5.301e-14
 0.35082    5.095e-14
 0.35123    4.895e-14
 0.35164    4.702e-14
 0.35205    4.515e-14
 0.35246    4.333e-14
 0.35287    4.157e-14
 0.35328    3.987e-14
 0.35369    3.822e-14
 0.35410    3.663e-14
 0.35451    3.509e-14
 0.35492    3.361e-14
 0.35533    3.218e-14
 0.35574    3.081e-14
 0.35615    2.949e-14
 0.35656    2.826e-14
 0.35697    2.717e-14
 0.35738    2.612e-14
 0.35779    2.510e-14
 0.35820    2.411e-14
 0.35861    2.315e-14
 0.35902    2.222e-14
 0.35943    2.132e-14
 0.35984    2.045e-14
 0.36025    1.961e-14
 0.36066    1.879e-14
 0.36107    1.800e-14
 0.36148    1.725e-14
 0.36189    1.651e-14
 0.36230    1.581e-14
 0.36270    1.513e-14
 0.36311    1.447e-14
 0.36352    1.391e-14
 0.36393    1.337e-14
 0.36434    1.285e-14
 0.36475    1.234e-14
 0.36516    1.185e-14
 0.36557    1.137e-14
 0.36598    1.091e-14
 0.36639    1.047e-14
 0.36680    1.004e-14
 0.36721    9.622e-15
 0.36762    9.223e-15
 0.36803    8.838e-15
 0.36844    8.468e-15
 0.36885    8.112e-15
 0.36926    7.770e-15
 0.36967    7.443e-15
 0.37008    7.128e-15
 0.37049    6.843e-15
