# 1) Radius of the zone in units of one solar radius
# 2) Fraction of pp neutrinos produced in the zone
# 3) Fraction of boron 8 neutrinos produced in the zone
# 4) Fraction of nitrogen 13 neutrinos produced in the zone
# 5) Fraction of oxygen 15 neutrinos produced in the zone
# 6) Fraction of florine 17 neutrinos produced in the zone
# 7) Fraction of beryllium 7 neutrinos produced in the zone
# 8) Fraction of pep neutrinos produced in the zone
# 9) Fraction of hep neutrinos produced in the zone
 0.00041    3.852e-07    4.706e-06    3.040e-06    3.998e-06    4.384e-06    1.890e-06    6.080e-07    1.592e-07
 0.00082    1.120e-06    1.368e-05    8.834e-06    1.162e-05    1.274e-05    5.495e-06    1.768e-06    4.630e-07
 0.00123    1.857e-06    2.267e-05    1.463e-05    1.924e-05    2.109e-05    9.108e-06    2.931e-06    7.677e-07
 0.00164    2.871e-06    3.502e-05    2.260e-05    2.972e-05    3.258e-05    1.408e-05    4.530e-06    1.187e-06
 0.00205    4.282e-06    5.221e-05    3.370e-05    4.433e-05    4.860e-05    2.099e-05    6.757e-06    1.771e-06
 0.00246    5.975e-06    7.279e-05    4.701e-05    6.183e-05    6.779e-05    2.928e-05    9.428e-06    2.471e-06
 0.00287    7.949e-06    9.675e-05    6.250e-05    8.221e-05    9.013e-05    3.894e-05    1.254e-05    3.289e-06
 0.00328    1.020e-05    1.241e-04    8.017e-05    1.055e-04    1.156e-04    4.996e-05    1.610e-05    4.223e-06
 0.00369    1.274e-05    1.547e-04    9.999e-05    1.315e-04    1.442e-04    6.234e-05    2.010e-05    5.275e-06
 0.00410    1.556e-05    1.887e-04    1.220e-04    1.604e-04    1.759e-04    7.608e-05    2.454e-05    6.444e-06
 0.00451    1.866e-05    2.259e-04    1.460e-04    1.921e-04    2.106e-04    9.116e-05    2.942e-05    7.730e-06
 0.00492    2.203e-05    2.663e-04    1.722e-04    2.265e-04    2.483e-04    1.076e-04    3.474e-05    9.133e-06
 0.00533    2.569e-05    3.100e-04    2.004e-04    2.636e-04    2.890e-04    1.253e-04    4.050e-05    1.065e-05
 0.00574    2.963e-05    3.568e-04    2.307e-04    3.034e-04    3.326e-04    1.444e-04    4.669e-05    1.229e-05
 0.00615    3.384e-05    4.067e-04    2.630e-04    3.459e-04    3.791e-04    1.648e-04    5.332e-05    1.405e-05
 0.00656    3.833e-05    4.596e-04    2.972e-04    3.910e-04    4.285e-04    1.864e-04    6.038e-05    1.592e-05
 0.00697    4.310e-05    5.156e-04    3.334e-04    4.386e-04    4.806e-04    2.094e-04    6.787e-05    1.792e-05
 0.00738    4.815e-05    5.745e-04    3.716e-04    4.887e-04    5.355e-04    2.336e-04    7.580e-05    2.003e-05
 0.00779    5.347e-05    6.362e-04    4.115e-04    5.413e-04    5.931e-04    2.591e-04    8.415e-05    2.226e-05
 0.00820    5.907e-05    7.008e-04    4.534e-04    5.964e-04    6.533e-04    2.858e-04    9.293e-05    2.461e-05
 0.00861    6.494e-05    7.682e-04    4.970e-04    6.537e-04    7.161e-04    3.138e-04    1.021e-04    2.707e-05
 0.00902    7.109e-05    8.383e-04    5.424e-04    7.134e-04    7.814e-04    3.430e-04    1.118e-04    2.966e-05
 0.00943    7.751e-05    9.110e-04    5.895e-04    7.754e-04    8.492e-04    3.734e-04    1.218e-04    3.237e-05
 0.00984    8.420e-05    9.863e-04    6.383e-04    8.395e-04    9.193e-04    4.049e-04    1.323e-04    3.519e-05
 0.01025    9.116e-05    1.064e-03    6.886e-04    9.058e-04    9.918e-04    4.377e-04    1.432e-04    3.814e-05
 0.01066    9.839e-05    1.144e-03    7.406e-04    9.742e-04    1.066e-03    4.715e-04    1.544e-04    4.121e-05
 0.01107    1.059e-04    1.227e-03    7.941e-04    1.045e-03    1.143e-03    5.066e-04    1.661e-04    4.439e-05
 0.01148    1.137e-04    1.311e-03    8.491e-04    1.117e-03    1.222e-03    5.427e-04    1.783e-04    4.770e-05
 0.01189    1.217e-04    1.398e-03    9.054e-04    1.191e-03    1.303e-03    5.799e-04    1.908e-04    5.113e-05
 0.01230    1.300e-04    1.487e-03    9.632e-04    1.267e-03    1.386e-03    6.182e-04    2.037e-04    5.468e-05
 0.01270    1.386e-04    1.578e-03    1.022e-03    1.345e-03    1.471e-03    6.575e-04    2.170e-04    5.835e-05
 0.01311    1.474e-04    1.671e-03    1.083e-03    1.424e-03    1.558e-03    6.979e-04    2.307e-04    6.214e-05
 0.01352    1.565e-04    1.766e-03    1.144e-03    1.505e-03    1.646e-03    7.393e-04    2.448e-04    6.606e-05
 0.01393    1.658e-04    1.862e-03    1.207e-03    1.587e-03    1.736e-03    7.816e-04    2.593e-04    7.010e-05
 0.01434    1.755e-04    1.960e-03    1.271e-03    1.671e-03    1.827e-03    8.250e-04    2.742e-04    7.426e-05
 0.01475    1.853e-04    2.060e-03    1.335e-03    1.757e-03    1.920e-03    8.692e-04    2.894e-04    7.854e-05
 0.01516    1.955e-04    2.161e-03    1.401e-03    1.843e-03    2.014e-03    9.144e-04    3.051e-04    8.295e-05
 0.01557    2.058e-04    2.264e-03    1.468e-03    1.931e-03    2.110e-03    9.605e-04    3.211e-04    8.748e-05
 0.01598    2.165e-04    2.367e-03    1.536e-03    2.020e-03    2.206e-03    1.007e-03    3.375e-04    9.213e-05
 0.01639    2.274e-04    2.472e-03    1.604e-03    2.110e-03    2.304e-03    1.055e-03    3.542e-04    9.691e-05
 0.01680    2.385e-04    2.578e-03    1.673e-03    2.201e-03    2.403e-03    1.104e-03    3.713e-04    1.018e-04
 0.01721    2.499e-04    2.685e-03    1.743e-03    2.293e-03    2.503e-03    1.153e-03    3.888e-04    1.068e-04
 0.01762    2.615e-04    2.793e-03    1.813e-03    2.385e-03    2.603e-03    1.203e-03    4.066e-04    1.120e-04
 0.01803    2.734e-04    2.901e-03    1.884e-03    2.478e-03    2.704e-03    1.254e-03    4.248e-04    1.173e-04
 0.01844    2.856e-04    3.010e-03    1.956e-03    2.572e-03    2.806e-03    1.306e-03    4.434e-04    1.227e-04
 0.01885    2.979e-04    3.120e-03    2.028e-03    2.667e-03    2.908e-03    1.358e-03    4.622e-04    1.282e-04
 0.01926    3.105e-04    3.230e-03    2.100e-03    2.762e-03    3.011e-03    1.411e-03    4.814e-04    1.338e-04
 0.01967    3.234e-04    3.341e-03    2.172e-03    2.857e-03    3.114e-03    1.464e-03    5.010e-04    1.396e-04
 0.02008    3.365e-04    3.451e-03    2.245e-03    2.953e-03    3.218e-03    1.519e-03    5.208e-04    1.455e-04
 0.02049    3.498e-04    3.562e-03    2.318e-03    3.049e-03    3.321e-03    1.573e-03    5.410e-04    1.516e-04
 0.02090    3.633e-04    3.673e-03    2.391e-03    3.145e-03    3.425e-03    1.628e-03    5.615e-04    1.577e-04
 0.02131    3.771e-04    3.784e-03    2.464e-03    3.241e-03    3.528e-03    1.684e-03    5.824e-04    1.640e-04
 0.02172    3.911e-04    3.895e-03    2.537e-03    3.337e-03    3.632e-03    1.740e-03    6.035e-04    1.704e-04
 0.02213    4.054e-04    4.005e-03    2.610e-03    3.433e-03    3.735e-03    1.797e-03    6.249e-04    1.770e-04
 0.02254    4.198e-04    4.116e-03    2.683e-03    3.529e-03    3.838e-03    1.854e-03    6.466e-04    1.836e-04
 0.02295    4.345e-04    4.225e-03    2.756e-03    3.625e-03    3.941e-03    1.912e-03    6.687e-04    1.904e-04
 0.02336    4.494e-04    4.334e-03    2.828e-03    3.720e-03    4.043e-03    1.969e-03    6.910e-04    1.973e-04
 0.02377    4.645e-04    4.443e-03    2.901e-03    3.815e-03    4.145e-03    2.027e-03    7.136e-04    2.044e-04
 0.02418    4.798e-04    4.551e-03    2.972e-03    3.910e-03    4.246e-03    2.086e-03    7.364e-04    2.116e-04
 0.02459    4.954e-04    4.658e-03    3.044e-03    4.004e-03    4.346e-03    2.145e-03    7.596e-04    2.189e-04
 0.02500    5.111e-04    4.764e-03    3.115e-03    4.097e-03    4.446e-03    2.204e-03    7.830e-04    2.263e-04
 0.02541    5.271e-04    4.869e-03    3.185e-03    4.190e-03    4.544e-03    2.263e-03    8.066e-04    2.339e-04
 0.02582    5.433e-04    4.973e-03    3.255e-03    4.282e-03    4.642e-03    2.322e-03    8.306e-04    2.416e-04
 0.02623    5.596e-04    5.076e-03    3.324e-03    4.373e-03    4.739e-03    2.381e-03    8.547e-04    2.494e-04
 0.02664    5.762e-04    5.177e-03    3.393e-03    4.463e-03    4.834e-03    2.441e-03    8.791e-04    2.573e-04
 0.02705    5.929e-04    5.277e-03    3.461e-03    4.552e-03    4.928e-03    2.501e-03    9.038e-04    2.654e-04
 0.02746    6.099e-04    5.376e-03    3.528e-03    4.640e-03    5.022e-03    2.560e-03    9.286e-04    2.736e-04
 0.02787    6.270e-04    5.474e-03    3.594e-03    4.727e-03    5.113e-03    2.620e-03    9.537e-04    2.819e-04
 0.02828    6.444e-04    5.569e-03    3.659e-03    4.813e-03    5.204e-03    2.679e-03    9.790e-04    2.904e-04
 0.02869    6.619e-04    5.663e-03    3.723e-03    4.898e-03    5.293e-03    2.739e-03    1.005e-03    2.990e-04
 0.02910    6.796e-04    5.756e-03    3.787e-03    4.981e-03    5.380e-03    2.799e-03    1.030e-03    3.077e-04
 0.02951    6.974e-04    5.846e-03    3.849e-03    5.063e-03    5.466e-03    2.858e-03    1.056e-03    3.165e-04
 0.02992    7.155e-04    5.935e-03    3.911e-03    5.144e-03    5.550e-03    2.917e-03    1.082e-03    3.255e-04
 0.03033    7.337e-04    6.021e-03    3.971e-03    5.223e-03    5.633e-03    2.977e-03    1.109e-03    3.346e-04
 0.03074    7.521e-04    6.106e-03    4.030e-03    5.301e-03    5.713e-03    3.036e-03    1.135e-03    3.438e-04
 0.03115    7.707e-04    6.189e-03    4.088e-03    5.378e-03    5.792e-03    3.094e-03    1.162e-03    3.532e-04
 0.03156    7.893e-04    6.269e-03    4.145e-03    5.452e-03    5.869e-03    3.153e-03    1.189e-03    3.626e-04
 0.03197    8.082e-04    6.348e-03    4.200e-03    5.525e-03    5.944e-03    3.211e-03    1.216e-03    3.722e-04
 0.03238    8.273e-04    6.424e-03    4.255e-03    5.597e-03    6.017e-03    3.269e-03    1.243e-03    3.820e-04
 0.03279    8.465e-04    6.498e-03    4.308e-03    5.666e-03    6.089e-03    3.326e-03    1.270e-03    3.918e-04
 0.03320    8.658e-04    6.569e-03    4.359e-03    5.734e-03    6.158e-03    3.384e-03    1.297e-03    4.018e-04
 0.03361    8.853e-04    6.638e-03    4.410e-03    5.800e-03    6.225e-03    3.440e-03    1.325e-03    4.119e-04
 0.03402    9.048e-04    6.705e-03    4.458e-03    5.864e-03    6.289e-03    3.497e-03    1.353e-03    4.221e-04
 0.03443    9.246e-04    6.770e-03    4.506e-03    5.927e-03    6.352e-03    3.553e-03    1.380e-03    4.325e-04
 0.03484    9.445e-04    6.831e-03    4.552e-03    5.988e-03    6.413e-03    3.608e-03    1.408e-03    4.429e-04
 0.03525    9.645e-04    6.891e-03    4.596e-03    6.046e-03    6.471e-03    3.663e-03    1.436e-03    4.535e-04
 0.03566    9.847e-04    6.947e-03    4.640e-03    6.103e-03    6.527e-03    3.717e-03    1.464e-03    4.642e-04
 0.03607    1.005e-03    7.002e-03    4.681e-03    6.158e-03    6.581e-03    3.771e-03    1.493e-03    4.751e-04
 0.03648    1.025e-03    7.053e-03    4.721e-03    6.211e-03    6.632e-03    3.825e-03    1.521e-03    4.860e-04
 0.03689    1.046e-03    7.102e-03    4.760e-03    6.261e-03    6.681e-03    3.877e-03    1.549e-03    4.971e-04
 0.03730    1.066e-03    7.148e-03    4.797e-03    6.310e-03    6.728e-03    3.929e-03    1.578e-03    5.082e-04
 0.03770    1.087e-03    7.192e-03    4.832e-03    6.356e-03    6.772e-03    3.981e-03    1.606e-03    5.195e-04
 0.03811    1.108e-03    7.233e-03    4.866e-03    6.400e-03    6.814e-03    4.031e-03    1.634e-03    5.309e-04
 0.03852    1.129e-03    7.272e-03    4.898e-03    6.443e-03    6.854e-03    4.082e-03    1.663e-03    5.425e-04
 0.03893    1.150e-03    7.307e-03    4.929e-03    6.483e-03    6.891e-03    4.131e-03    1.692e-03    5.541e-04
 0.03934    1.171e-03    7.340e-03    4.958e-03    6.522e-03    6.926e-03    4.179e-03    1.720e-03    5.659e-04
 0.03975    1.192e-03    7.370e-03    4.986e-03    6.558e-03    6.959e-03    4.227e-03    1.749e-03    5.778e-04
 0.04016    1.214e-03    7.398e-03    5.011e-03    6.592e-03    6.989e-03    4.274e-03    1.778e-03    5.898e-04
 0.04057    1.235e-03    7.423e-03    5.036e-03    6.624e-03    7.017e-03    4.321e-03    1.807e-03    6.019e-04
 0.04098    1.256e-03    7.445e-03    5.058e-03    6.654e-03    7.042e-03    4.366e-03    1.835e-03    6.141e-04
 0.04139    1.278e-03    7.464e-03    5.080e-03    6.682e-03    7.065e-03    4.411e-03    1.864e-03    6.264e-04
 0.04180    1.300e-03    7.481e-03    5.099e-03    6.707e-03    7.085e-03    4.455e-03    1.893e-03    6.389e-04
 0.04221    1.321e-03    7.495e-03    5.117e-03    6.730e-03    7.103e-03    4.498e-03    1.921e-03    6.514e-04
 0.04262    1.343e-03    7.506e-03    5.133e-03    6.752e-03    7.119e-03    4.540e-03    1.950e-03    6.640e-04
 0.04303    1.365e-03    7.515e-03    5.147e-03    6.771e-03    7.132e-03    4.581e-03    1.979e-03    6.767e-04
 0.04344    1.387e-03    7.521e-03    5.160e-03    6.788e-03    7.144e-03    4.621e-03    2.007e-03    6.896e-04
 0.04385    1.409e-03    7.525e-03    5.172e-03    6.803e-03    7.153e-03    4.661e-03    2.036e-03    7.026e-04
 0.04426    1.430e-03    7.525e-03    5.181e-03    6.816e-03    7.158e-03    4.699e-03    2.064e-03    7.156e-04
 0.04467    1.452e-03    7.524e-03    5.190e-03    6.827e-03    7.163e-03    4.737e-03    2.093e-03    7.287e-04
 0.04508    1.474e-03    7.520e-03    5.197e-03    6.836e-03    7.165e-03    4.773e-03    2.121e-03    7.420e-04
 0.04549    1.496e-03    7.513e-03    5.201e-03    6.842e-03    7.164e-03    4.808e-03    2.149e-03    7.553e-04
 0.04590    1.519e-03    7.505e-03    5.205e-03    6.847e-03    7.162e-03    4.843e-03    2.178e-03    7.688e-04
 0.04631    1.541e-03    7.493e-03    5.207e-03    6.850e-03    7.157e-03    4.877e-03    2.206e-03    7.823e-04
 0.04672    1.563e-03    7.479e-03    5.208e-03    6.851e-03    7.150e-03    4.909e-03    2.234e-03    7.959e-04
 0.04713    1.585e-03    7.463e-03    5.207e-03    6.850e-03    7.141e-03    4.941e-03    2.262e-03    8.096e-04
 0.04754    1.607e-03    7.444e-03    5.205e-03    6.846e-03    7.130e-03    4.971e-03    2.290e-03    8.234e-04
 0.04795    1.629e-03    7.423e-03    5.201e-03    6.841e-03    7.116e-03    5.001e-03    2.317e-03    8.373e-04
 0.04836    1.651e-03    7.399e-03    5.195e-03    6.834e-03    7.101e-03    5.029e-03    2.345e-03    8.512e-04
 0.04877    1.673e-03    7.374e-03    5.189e-03    6.825e-03    7.083e-03    5.056e-03    2.372e-03    8.652e-04
 0.04918    1.695e-03    7.347e-03    5.181e-03    6.815e-03    7.064e-03    5.083e-03    2.400e-03    8.794e-04
 0.04959    1.717e-03    7.317e-03    5.172e-03    6.803e-03    7.043e-03    5.108e-03    2.427e-03    8.936e-04
 0.05000    1.740e-03    7.285e-03    5.161e-03    6.788e-03    7.020e-03    5.132e-03    2.454e-03    9.079e-04
 0.05041    1.762e-03    7.251e-03    5.148e-03    6.772e-03    6.995e-03    5.156e-03    2.481e-03    9.223e-04
 0.05082    1.784e-03    7.216e-03    5.135e-03    6.755e-03    6.968e-03    5.178e-03    2.508e-03    9.368e-04
 0.05123    1.806e-03    7.178e-03    5.121e-03    6.736e-03    6.939e-03    5.199e-03    2.534e-03    9.512e-04
 0.05164    1.828e-03    7.138e-03    5.104e-03    6.715e-03    6.909e-03    5.219e-03    2.561e-03    9.658e-04
 0.05205    1.850e-03    7.097e-03    5.087e-03    6.692e-03    6.877e-03    5.238e-03    2.587e-03    9.805e-04
 0.05246    1.872e-03    7.054e-03    5.069e-03    6.668e-03    6.843e-03    5.256e-03    2.613e-03    9.952e-04
 0.05287    1.893e-03    7.009e-03    5.049e-03    6.642e-03    6.808e-03    5.272e-03    2.639e-03    1.010e-03
 0.05328    1.915e-03    6.962e-03    5.028e-03    6.614e-03    6.771e-03    5.288e-03    2.664e-03    1.025e-03
 0.05369    1.937e-03    6.914e-03    5.007e-03    6.586e-03    6.733e-03    5.303e-03    2.690e-03    1.040e-03
 0.05410    1.959e-03    6.865e-03    4.984e-03    6.556e-03    6.693e-03    5.317e-03    2.715e-03    1.055e-03
 0.05451    1.980e-03    6.813e-03    4.960e-03    6.524e-03    6.652e-03    5.329e-03    2.741e-03    1.070e-03
 0.05492    2.002e-03    6.761e-03    4.935e-03    6.492e-03    6.609e-03    5.341e-03    2.765e-03    1.085e-03
 0.05533    2.023e-03    6.706e-03    4.909e-03    6.457e-03    6.565e-03    5.351e-03    2.790e-03    1.100e-03
 0.05574    2.045e-03    6.651e-03    4.881e-03    6.421e-03    6.519e-03    5.360e-03    2.814e-03    1.115e-03
 0.05615    2.066e-03    6.594e-03    4.853e-03    6.384e-03    6.472e-03    5.368e-03    2.838e-03    1.130e-03
 0.05656    2.088e-03    6.536e-03    4.824e-03    6.346e-03    6.425e-03    5.376e-03    2.863e-03    1.146e-03
 0.05697    2.109e-03    6.477e-03    4.794e-03    6.307e-03    6.376e-03    5.382e-03    2.886e-03    1.161e-03
 0.05738    2.130e-03    6.417e-03    4.764e-03    6.267e-03    6.326e-03    5.387e-03    2.910e-03    1.176e-03
 0.05779    2.151e-03    6.355e-03    4.732e-03    6.225e-03    6.274e-03    5.391e-03    2.933e-03    1.192e-03
 0.05820    2.172e-03    6.292e-03    4.700e-03    6.182e-03    6.222e-03    5.394e-03    2.956e-03    1.207e-03
 0.05861    2.192e-03    6.229e-03    4.666e-03    6.138e-03    6.168e-03    5.396e-03    2.979e-03    1.223e-03
 0.05902    2.213e-03    6.164e-03    4.632e-03    6.094e-03    6.114e-03    5.398e-03    3.001e-03    1.238e-03
 0.05943    2.234e-03    6.099e-03    4.598e-03    6.048e-03    6.059e-03    5.398e-03    3.023e-03    1.254e-03
 0.05984    2.254e-03    6.033e-03    4.562e-03    6.001e-03    6.003e-03    5.397e-03    3.045e-03    1.269e-03
 0.06025    2.275e-03    5.966e-03    4.526e-03    5.954e-03    5.946e-03    5.395e-03    3.067e-03    1.285e-03
 0.06066    2.295e-03    5.899e-03    4.489e-03    5.906e-03    5.889e-03    5.392e-03    3.088e-03    1.300e-03
 0.06107    2.315e-03    5.830e-03    4.452e-03    5.856e-03    5.830e-03    5.388e-03    3.109e-03    1.316e-03
 0.06148    2.335e-03    5.762e-03    4.414e-03    5.806e-03    5.771e-03    5.384e-03    3.130e-03    1.332e-03
 0.06189    2.355e-03    5.692e-03    4.375e-03    5.756e-03    5.712e-03    5.378e-03    3.151e-03    1.347e-03
 0.06230    2.375e-03    5.622e-03    4.336e-03    5.704e-03    5.652e-03    5.372e-03    3.171e-03    1.363e-03
 0.06270    2.394e-03    5.552e-03    4.296e-03    5.652e-03    5.591e-03    5.364e-03    3.191e-03    1.379e-03
 0.06311    2.414e-03    5.481e-03    4.256e-03    5.599e-03    5.530e-03    5.356e-03    3.210e-03    1.394e-03
 0.06352    2.433e-03    5.410e-03    4.216e-03    5.546e-03    5.468e-03    5.347e-03    3.229e-03    1.410e-03
 0.06393    2.452e-03    5.339e-03    4.175e-03    5.492e-03    5.406e-03    5.336e-03    3.249e-03    1.426e-03
 0.06434    2.471e-03    5.267e-03    4.134e-03    5.438e-03    5.343e-03    5.325e-03    3.267e-03    1.442e-03
 0.06475    2.490e-03    5.195e-03    4.092e-03    5.383e-03    5.280e-03    5.313e-03    3.285e-03    1.457e-03
 0.06516    2.509e-03    5.123e-03    4.050e-03    5.327e-03    5.217e-03    5.301e-03    3.304e-03    1.473e-03
 0.06557    2.527e-03    5.051e-03    4.007e-03    5.272e-03    5.153e-03    5.287e-03    3.321e-03    1.489e-03
 0.06598    2.545e-03    4.978e-03    3.964e-03    5.215e-03    5.089e-03    5.273e-03    3.339e-03    1.505e-03
 0.06639    2.564e-03    4.906e-03    3.922e-03    5.159e-03    5.025e-03    5.258e-03    3.356e-03    1.520e-03
 0.06680    2.582e-03    4.834e-03    3.878e-03    5.102e-03    4.961e-03    5.242e-03    3.372e-03    1.536e-03
 0.06721    2.599e-03    4.761e-03    3.835e-03    5.045e-03    4.897e-03    5.225e-03    3.389e-03    1.552e-03
 0.06762    2.617e-03    4.689e-03    3.791e-03    4.987e-03    4.832e-03    5.207e-03    3.405e-03    1.567e-03
 0.06803    2.635e-03    4.616e-03    3.747e-03    4.930e-03    4.768e-03    5.189e-03    3.420e-03    1.583e-03
 0.06844    2.652e-03    4.544e-03    3.703e-03    4.872e-03    4.704e-03    5.171e-03    3.436e-03    1.599e-03
 0.06885    2.669e-03    4.472e-03    3.659e-03    4.814e-03    4.639e-03    5.151e-03    3.451e-03    1.614e-03
 0.06926    2.686e-03    4.401e-03    3.615e-03    4.756e-03    4.574e-03    5.130e-03    3.466e-03    1.630e-03
 0.06967    2.703e-03    4.329e-03    3.570e-03    4.697e-03    4.510e-03    5.109e-03    3.480e-03    1.645e-03
 0.07008    2.719e-03    4.258e-03    3.526e-03    4.639e-03    4.446e-03    5.088e-03    3.494e-03    1.661e-03
 0.07049    2.736e-03    4.187e-03    3.481e-03    4.580e-03    4.381e-03    5.065e-03    3.508e-03    1.676e-03
