# 1) Radius of the zone in units of one solar radius
# 2) Fraction of hep neutrinos produced in the zone
 0.00041    1.592e-07
 0.00082    4.630e-07
 0.00123    7.677e-07
 0.00164    1.187e-06
 0.00205    1.771e-06
 0.00246    2.471e-06
 0.00287    3.289e-06
 0.00328    4.223e-06
 0.00369    5.275e-06
 0.00410    6.444e-06
 0.00451    7.730e-06
 0.00492    9.133e-06
 0.00533    1.065e-05
 0.00574    1.229e-05
 0.00615    1.405e-05
 0.00656    1.592e-05
 0.00697    1.792e-05
 0.00738    2.003e-05
 0.00779    2.226e-05
 0.00820    2.461e-05
 0.00861    2.707e-05
 0.00902    2.966e-05
 0.00943    3.237e-05
 0.00984    3.519e-05
 0.01025    3.814e-05
 0.01066    4.121e-05
 0.01107    4.439e-05
 0.01148    4.770e-05
 0.01189    5.113e-05
 0.01230    5.468e-05
 0.01270    5.835e-05
 0.01311    6.214e-05
 0.01352    6.606e-05
 0.01393    7.010e-05
 0.01434    7.426e-05
 0.01475    7.854e-05
 0.01516    8.295e-05
 0.01557    8.748e-05
 0.01598    9.213e-05
 0.01639    9.691e-05
 0.01680    1.018e-04
 0.01721    1.068e-04
 0.01762    1.120e-04
 0.01803    1.173e-04
 0.01844    1.227e-04
 0.01885    1.282e-04
 0.01926    1.338e-04
 0.01967    1.396e-04
 0.02008    1.455e-04
 0.02049    1.516e-04
 0.02090    1.577e-04
 0.02131    1.640e-04
 0.02172    1.704e-04
 0.02213    1.770e-04
 0.02254    1.836e-04
 0.02295    1.904e-04
 0.02336    1.973e-04
 0.02377    2.044e-04
 0.02418    2.116e-04
 0.02459    2.189e-04
 0.02500    2.263e-04
 0.02541    2.339e-04
 0.02582    2.416e-04
 0.02623    2.494e-04
 0.02664    2.573e-04
 0.02705    2.654e-04
 0.02746    2.736e-04
 0.02787    2.819e-04
 0.02828    2.904e-04
 0.02869    2.990e-04
 0.02910    3.077e-04
 0.02951    3.165e-04
 0.02992    3.255e-04
 0.03033    3.346e-04
 0.03074    3.438e-04
 0.03115    3.532e-04
 0.03156    3.626e-04
 0.03197    3.722e-04
 0.03238    3.820e-04
 0.03279    3.918e-04
 0.03320    4.018e-04
 0.03361    4.119e-04
 0.03402    4.221e-04
 0.03443    4.325e-04
 0.03484    4.429e-04
 0.03525    4.535e-04
 0.03566    4.642e-04
 0.03607    4.751e-04
 0.03648    4.860e-04
 0.03689    4.971e-04
 0.03730    5.082e-04
 0.03770    5.195e-04
 0.03811    5.309e-04
 0.03852    5.425e-04
 0.03893    5.541e-04
 0.03934    5.659e-04
 0.03975    5.778e-04
 0.04016    5.898e-04
 0.04057    6.019e-04
 0.04098    6.141e-04
 0.04139    6.264e-04
 0.04180    6.389e-04
 0.04221    6.514e-04
 0.04262    6.640e-04
 0.04303    6.767e-04
 0.04344    6.896e-04
 0.04385    7.026e-04
 0.04426    7.156e-04
 0.04467    7.287e-04
 0.04508    7.420e-04
 0.04549    7.553e-04
 0.04590    7.688e-04
 0.04631    7.823e-04
 0.04672    7.959e-04
 0.04713    8.096e-04
 0.04754    8.234e-04
 0.04795    8.373e-04
 0.04836    8.512e-04
 0.04877    8.652e-04
 0.04918    8.794e-04
 0.04959    8.936e-04
 0.05000    9.079e-04
 0.05041    9.223e-04
 0.05082    9.368e-04
 0.05123    9.512e-04
 0.05164    9.658e-04
 0.05205    9.805e-04
 0.05246    9.952e-04
 0.05287    1.010e-03
 0.05328    1.025e-03
 0.05369    1.040e-03
 0.05410    1.055e-03
 0.05451    1.070e-03
 0.05492    1.085e-03
 0.05533    1.100e-03
 0.05574    1.115e-03
 0.05615    1.130e-03
 0.05656    1.146e-03
 0.05697    1.161e-03
 0.05738    1.176e-03
 0.05779    1.192e-03
 0.05820    1.207e-03
 0.05861    1.223e-03
 0.05902    1.238e-03
 0.05943    1.254e-03
 0.05984    1.269e-03
 0.06025    1.285e-03
 0.06066    1.300e-03
 0.06107    1.316e-03
 0.06148    1.332e-03
 0.06189    1.347e-03
 0.06230    1.363e-03
 0.06270    1.379e-03
 0.06311    1.394e-03
 0.06352    1.410e-03
 0.06393    1.426e-03
 0.06434    1.442e-03
 0.06475    1.457e-03
 0.06516    1.473e-03
 0.06557    1.489e-03
 0.06598    1.505e-03
 0.06639    1.520e-03
 0.06680    1.536e-03
 0.06721    1.552e-03
 0.06762    1.567e-03
 0.06803    1.583e-03
 0.06844    1.599e-03
 0.06885    1.614e-03
 0.06926    1.630e-03
 0.06967    1.645e-03
 0.07008    1.661e-03
 0.07049    1.676e-03
 0.07090    1.692e-03
 0.07131    1.707e-03
 0.07172    1.722e-03
 0.07213    1.738e-03
 0.07254    1.753e-03
 0.07295    1.768e-03
 0.07336    1.784e-03
 0.07377    1.799e-03
 0.07418    1.814e-03
 0.07459    1.829e-03
 0.07500    1.844e-03
 0.07541    1.859e-03
 0.07582    1.874e-03
 0.07623    1.888e-03
 0.07664    1.903e-03
 0.07705    1.918e-03
 0.07746    1.932e-03
 0.07787    1.947e-03
 0.07828    1.961e-03
 0.07869    1.976e-03
 0.07910    1.990e-03
 0.07951    2.004e-03
 0.07992    2.018e-03
 0.08033    2.032e-03
 0.08074    2.046e-03
 0.08115    2.060e-03
 0.08156    2.074e-03
 0.08197    2.088e-03
 0.08238    2.101e-03
 0.08279    2.115e-03
 0.08320    2.128e-03
 0.08361    2.142e-03
 0.08402    2.155e-03
 0.08443    2.168e-03
 0.08484    2.181e-03
 0.08525    2.194e-03
 0.08566    2.207e-03
 0.08607    2.219e-03
 0.08648    2.232e-03
 0.08689    2.244e-03
 0.08730    2.257e-03
 0.08770    2.269e-03
 0.08811    2.281e-03
 0.08852    2.293e-03
 0.08893    2.305e-03
 0.08934    2.317e-03
 0.08975    2.329e-03
 0.09016    2.340e-03
 0.09057    2.351e-03
 0.09098    2.363e-03
 0.09139    2.374e-03
 0.09180    2.385e-03
 0.09221    2.396e-03
 0.09262    2.407e-03
 0.09303    2.417e-03
 0.09344    2.428e-03
 0.09385    2.438e-03
 0.09426    2.448e-03
 0.09467    2.459e-03
 0.09508    2.469e-03
 0.09549    2.478e-03
 0.09590    2.488e-03
 0.09631    2.498e-03
 0.09672    2.507e-03
 0.09713    2.516e-03
 0.09754    2.525e-03
 0.09795    2.534e-03
 0.09836    2.543e-03
 0.09877    2.552e-03
 0.09918    2.561e-03
 0.09959    2.569e-03
 0.10000    2.577e-03
 0.10041    2.585e-03
 0.10082    2.593e-03
 0.10123    2.601e-03
 0.10164    2.609e-03
 0.10205    2.616e-03
 0.10246    2.624e-03
 0.10287    2.631e-03
 0.10328    2.638e-03
 0.10369    2.645e-03
 0.10410    2.652e-03
 0.10451    2.659e-03
 0.10492    2.665e-03
 0.10533    2.672e-03
 0.10574    2.678e-03
 0.10615    2.684e-03
 0.10656    2.690e-03
 0.10697    2.695e-03
 0.10738    2.701e-03
 0.10779    2.706e-03
 0.10820    2.712e-03
 0.10861    2.717e-03
 0.10902    2.722e-03
 0.10943    2.727e-03
 0.10984    2.731e-03
 0.11025    2.736e-03
 0.11066    2.740e-03
 0.11107    2.745e-03
 0.11148    2.749e-03
 0.11189    2.753e-03
 0.11230    2.757e-03
 0.11270    2.760e-03
 0.11311    2.764e-03
 0.11352    2.767e-03
 0.11393    2.770e-03
 0.11434    2.773e-03
 0.11475    2.776e-03
 0.11516    2.779e-03
 0.11557    2.782e-03
 0.11598    2.784e-03
 0.11639    2.786e-03
 0.11680    2.788e-03
 0.11721    2.790e-03
 0.11762    2.792e-03
 0.11803    2.794e-03
 0.11844    2.796e-03
 0.11885    2.797e-03
 0.11926    2.798e-03
 0.11967    2.800e-03
 0.12008    2.801e-03
 0.12049    2.801e-03
 0.12090    2.802e-03
 0.12131    2.803e-03
 0.12172    2.803e-03
 0.12213    2.804e-03
 0.12254    2.804e-03
 0.12295    2.804e-03
 0.12336    2.804e-03
 0.12377    2.803e-03
 0.12418    2.803e-03
 0.12459    2.802e-03
 0.12500    2.802e-03
 0.12541    2.801e-03
 0.12582    2.800e-03
 0.12623    2.799e-03
 0.12664    2.798e-03
 0.12705    2.797e-03
 0.12746    2.795e-03
 0.12787    2.794e-03
 0.12828    2.792e-03
 0.12869    2.790e-03
 0.12910    2.788e-03
 0.12951    2.786e-03
 0.12992    2.784e-03
 0.13033    2.782e-03
 0.13074    2.779e-03
 0.13115    2.777e-03
 0.13156    2.774e-03
 0.13197    2.771e-03
 0.13238    2.768e-03
 0.13279    2.765e-03
 0.13320    2.762e-03
 0.13361    2.759e-03
 0.13402    2.755e-03
 0.13443    2.752e-03
 0.13484    2.748e-03
 0.13525    2.744e-03
 0.13566    2.741e-03
 0.13607    2.737e-03
 0.13648    2.733e-03
 0.13689    2.729e-03
 0.13730    2.724e-03
 0.13770    2.720e-03
 0.13811    2.715e-03
 0.13852    2.711e-03
 0.13893    2.706e-03
 0.13934    2.701e-03
 0.13975    2.696e-03
 0.14016    2.692e-03
 0.14057    2.686e-03
 0.14098    2.681e-03
 0.14139    2.676e-03
 0.14180    2.671e-03
 0.14221    2.665e-03
 0.14262    2.660e-03
 0.14303    2.654e-03
 0.14344    2.648e-03
 0.14385    2.642e-03
 0.14426    2.636e-03
 0.14467    2.631e-03
 0.14508    2.624e-03
 0.14549    2.618e-03
 0.14590    2.612e-03
 0.14631    2.606e-03
 0.14672    2.599e-03
 0.14713    2.593e-03
 0.14754    2.586e-03
 0.14795    2.580e-03
 0.14836    2.573e-03
 0.14877    2.566e-03
 0.14918    2.559e-03
 0.14959    2.552e-03
 0.15000    2.545e-03
 0.15041    2.538e-03
 0.15082    2.531e-03
 0.15123    2.524e-03
 0.15164    2.516e-03
 0.15205    2.509e-03
 0.15246    2.502e-03
 0.15287    2.494e-03
 0.15328    2.486e-03
 0.15369    2.479e-03
 0.15410    2.471e-03
 0.15451    2.463e-03
 0.15492    2.456e-03
 0.15533    2.448e-03
 0.15574    2.440e-03
 0.15615    2.432e-03
 0.15656    2.424e-03
 0.15697    2.416e-03
 0.15738    2.408e-03
 0.15779    2.399e-03
 0.15820    2.391e-03
 0.15861    2.383e-03
 0.15902    2.375e-03
 0.15943    2.366e-03
 0.15984    2.358e-03
 0.16025    2.349e-03
 0.16066    2.341e-03
 0.16107    2.332e-03
 0.16148    2.324e-03
 0.16189    2.315e-03
 0.16230    2.306e-03
 0.16270    2.298e-03
 0.16311    2.289e-03
 0.16352    2.280e-03
 0.16393    2.271e-03
 0.16434    2.262e-03
 0.16475    2.253e-03
 0.16516    2.244e-03
 0.16557    2.235e-03
 0.16598    2.227e-03
 0.16639    2.218e-03
 0.16680    2.208e-03
 0.16721    2.199e-03
 0.16762    2.190e-03
 0.16803    2.181e-03
 0.16844    2.172e-03
 0.16885    2.163e-03
 0.16926    2.154e-03
 0.16967    2.144e-03
 0.17008    2.135e-03
 0.17049    2.126e-03
 0.17090    2.116e-03
 0.17131    2.107e-03
 0.17172    2.098e-03
 0.17213    2.088e-03
 0.17254    2.079e-03
 0.17295    2.070e-03
 0.17336    2.060e-03
 0.17377    2.051e-03
 0.17418    2.041e-03
 0.17459    2.032e-03
 0.17500    2.022e-03
 0.17541    2.013e-03
 0.17582    2.003e-03
 0.17623    1.994e-03
 0.17664    1.984e-03
 0.17705    1.975e-03
 0.17746    1.965e-03
 0.17787    1.956e-03
 0.17828    1.946e-03
 0.17869    1.937e-03
 0.17910    1.927e-03
 0.17951    1.918e-03
 0.17992    1.908e-03
 0.18033    1.899e-03
 0.18074    1.889e-03
 0.18115    1.880e-03
 0.18156    1.870e-03
 0.18197    1.861e-03
 0.18238    1.851e-03
 0.18279    1.842e-03
 0.18320    1.832e-03
 0.18361    1.822e-03
 0.18402    1.813e-03
 0.18443    1.803e-03
 0.18484    1.794e-03
 0.18525    1.784e-03
 0.18566    1.775e-03
 0.18607    1.765e-03
 0.18648    1.756e-03
 0.18689    1.746e-03
 0.18730    1.737e-03
 0.18770    1.728e-03
 0.18811    1.718e-03
 0.18852    1.709e-03
 0.18893    1.699e-03
 0.18934    1.690e-03
 0.18975    1.680e-03
 0.19016    1.671e-03
 0.19057    1.662e-03
 0.19098    1.652e-03
 0.19139    1.643e-03
 0.19180    1.634e-03
 0.19221    1.624e-03
 0.19262    1.615e-03
 0.19303    1.606e-03
 0.19344    1.597e-03
 0.19385    1.587e-03
 0.19426    1.578e-03
 0.19467    1.569e-03
 0.19508    1.560e-03
 0.19549    1.551e-03
 0.19590    1.542e-03
 0.19631    1.533e-03
 0.19672    1.523e-03
 0.19713    1.514e-03
 0.19754    1.505e-03
 0.19795    1.496e-03
 0.19836    1.487e-03
 0.19877    1.478e-03
 0.19918    1.469e-03
 0.19959    1.461e-03
 0.20000    1.452e-03
 0.20041    1.443e-03
 0.20082    1.434e-03
 0.20123    1.425e-03
 0.20164    1.416e-03
 0.20205    1.408e-03
 0.20246    1.399e-03
 0.20287    1.390e-03
 0.20328    1.381e-03
 0.20369    1.373e-03
 0.20410    1.364e-03
 0.20451    1.355e-03
 0.20492    1.347e-03
 0.20533    1.338e-03
 0.20574    1.330e-03
 0.20615    1.321e-03
 0.20656    1.313e-03
 0.20697    1.305e-03
 0.20738    1.296e-03
 0.20779    1.288e-03
 0.20820    1.280e-03
 0.20861    1.271e-03
 0.20902    1.263e-03
 0.20943    1.255e-03
 0.20984    1.247e-03
 0.21025    1.238e-03
 0.21066    1.230e-03
 0.21107    1.222e-03
 0.21148    1.214e-03
 0.21189    1.206e-03
 0.21230    1.198e-03
 0.21270    1.190e-03
 0.21311    1.182e-03
 0.21352    1.174e-03
 0.21393    1.166e-03
 0.21434    1.159e-03
 0.21475    1.151e-03
 0.21516    1.143e-03
 0.21557    1.135e-03
 0.21598    1.128e-03
 0.21639    1.120e-03
 0.21680    1.112e-03
 0.21721    1.105e-03
 0.21762    1.097e-03
 0.21803    1.090e-03
 0.21844    1.082e-03
 0.21885    1.075e-03
 0.21926    1.067e-03
 0.21967    1.060e-03
 0.22008    1.053e-03
 0.22049    1.046e-03
 0.22090    1.038e-03
 0.22131    1.031e-03
 0.22172    1.024e-03
 0.22213    1.017e-03
 0.22254    1.010e-03
 0.22295    1.003e-03
 0.22336    9.956e-04
 0.22377    9.885e-04
 0.22418    9.816e-04
 0.22459    9.747e-04
 0.22500    9.679e-04
 0.22541    9.610e-04
 0.22582    9.542e-04
 0.22623    9.475e-04
 0.22664    9.408e-04
 0.22705    9.341e-04
 0.22746    9.274e-04
 0.22787    9.208e-04
 0.22828    9.143e-04
 0.22869    9.078e-04
 0.22910    9.012e-04
 0.22951    8.948e-04
 0.22992    8.884e-04
 0.23033    8.820e-04
 0.23074    8.757e-04
 0.23115    8.694e-04
 0.23156    8.631e-04
 0.23197    8.569e-04
 0.23238    8.507e-04
 0.23279    8.446e-04
 0.23320    8.385e-04
 0.23361    8.324e-04
 0.23402    8.264e-04
 0.23443    8.204e-04
 0.23484    8.144e-04
 0.23525    8.086e-04
 0.23566    8.027e-04
 0.23607    7.969e-04
 0.23648    7.911e-04
 0.23689    7.853e-04
 0.23730    7.796e-04
 0.23770    7.739e-04
 0.23811    7.683e-04
 0.23852    7.627e-04
 0.23893    7.571e-04
 0.23934    7.516e-04
 0.23975    7.461e-04
 0.24016    7.406e-04
 0.24057    7.353e-04
 0.24098    7.299e-04
 0.24139    7.245e-04
 0.24180    7.192e-04
 0.24221    7.140e-04
 0.24262    7.088e-04
 0.24303    7.036e-04
 0.24344    6.984e-04
 0.24385    6.932e-04
 0.24426    6.881e-04
 0.24467    6.830e-04
 0.24508    6.780e-04
 0.24549    6.731e-04
 0.24590    6.682e-04
 0.24631    6.633e-04
 0.24672    6.584e-04
 0.24713    6.535e-04
 0.24754    6.488e-04
 0.24795    6.439e-04
 0.24836    6.392e-04
 0.24877    6.344e-04
 0.24918    6.296e-04
 0.24959    6.250e-04
 0.25000    6.203e-04
 0.25041    6.156e-04
 0.25082    6.110e-04
 0.25123    6.065e-04
 0.25164    6.019e-04
 0.25205    5.973e-04
 0.25246    5.928e-04
 0.25287    5.882e-04
 0.25328    5.836e-04
 0.25369    5.792e-04
 0.25410    5.747e-04
 0.25451    5.702e-04
 0.25492    5.657e-04
 0.25533    5.612e-04
 0.25574    5.567e-04
 0.25615    5.523e-04
 0.25656    5.478e-04
 0.25697    5.434e-04
 0.25738    5.389e-04
 0.25779    5.344e-04
 0.25820    5.300e-04
 0.25861    5.255e-04
 0.25902    5.210e-04
 0.25943    5.164e-04
 0.25984    5.119e-04
 0.26025    5.074e-04
 0.26066    5.027e-04
 0.26107    4.981e-04
 0.26148    4.935e-04
 0.26189    4.889e-04
 0.26230    4.843e-04
 0.26270    4.797e-04
 0.26311    4.750e-04
 0.26352    4.703e-04
 0.26393    4.656e-04
 0.26434    4.608e-04
 0.26475    4.560e-04
 0.26516    4.512e-04
 0.26557    4.464e-04
 0.26598    4.415e-04
 0.26639    4.365e-04
 0.26680    4.315e-04
 0.26721    4.265e-04
 0.26762    4.216e-04
 0.26803    4.165e-04
 0.26844    4.115e-04
 0.26885    4.064e-04
 0.26926    4.013e-04
 0.26967    3.962e-04
 0.27008    3.911e-04
 0.27049    3.859e-04
 0.27090    3.807e-04
 0.27131    3.756e-04
 0.27172    3.704e-04
 0.27213    3.651e-04
 0.27254    3.598e-04
 0.27295    3.546e-04
 0.27336    3.493e-04
 0.27377    3.440e-04
 0.27418    3.388e-04
 0.27459    3.335e-04
 0.27500    3.283e-04
 0.27541    3.230e-04
 0.27582    3.178e-04
 0.27623    3.124e-04
 0.27664    3.071e-04
 0.27705    3.018e-04
 0.27746    2.966e-04
 0.27787    2.914e-04
 0.27828    2.862e-04
 0.27869    2.811e-04
 0.27910    2.759e-04
 0.27951    2.709e-04
 0.27992    2.658e-04
 0.28033    2.607e-04
 0.28074    2.556e-04
 0.28115    2.506e-04
 0.28156    2.456e-04
 0.28197    2.407e-04
 0.28238    2.358e-04
 0.28279    2.311e-04
 0.28320    2.263e-04
 0.28361    2.216e-04
 0.28402    2.170e-04
 0.28443    2.123e-04
 0.28484    2.077e-04
 0.28525    2.032e-04
 0.28566    1.987e-04
 0.28607    1.943e-04
 0.28648    1.900e-04
 0.28689    1.857e-04
 0.28730    1.815e-04
 0.28770    1.774e-04
 0.28811    1.733e-04
 0.28852    1.693e-04
 0.28893    1.653e-04
 0.28934    1.614e-04
 0.28975    1.576e-04
 0.29016    1.538e-04
 0.29057    1.501e-04
 0.29098    1.464e-04
 0.29139    1.429e-04
 0.29180    1.394e-04
 0.29221    1.359e-04
 0.29262    1.326e-04
 0.29303    1.293e-04
 0.29344    1.260e-04
 0.29385    1.229e-04
 0.29426    1.198e-04
 0.29467    1.167e-04
 0.29508    1.137e-04
 0.29549    1.108e-04
 0.29590    1.079e-04
 0.29631    1.051e-04
 0.29672    1.024e-04
 0.29713    9.971e-05
 0.29754    9.710e-05
 0.29795    9.454e-05
 0.29836    9.207e-05
 0.29877    8.964e-05
 0.29918    8.727e-05
 0.29959    8.494e-05
 0.30000    8.266e-05
 0.30041    8.045e-05
 0.30082    7.828e-05
 0.30123    7.616e-05
 0.30164    7.409e-05
 0.30205    7.207e-05
 0.30246    7.010e-05
 0.30287    6.820e-05
 0.30328    6.636e-05
 0.30369    6.456e-05
 0.30410    6.280e-05
 0.30451    6.107e-05
 0.30492    5.940e-05
 0.30533    5.776e-05
 0.30574    5.615e-05
 0.30615    5.459e-05
 0.30656    5.307e-05
 0.30697    5.159e-05
 0.30738    5.014e-05
 0.30779    4.874e-05
 0.30820    4.740e-05
 0.30861    4.609e-05
 0.30902    4.480e-05
 0.30943    4.356e-05
 0.30984    4.234e-05
 0.31025    4.115e-05
 0.31066    3.999e-05
 0.31107    3.886e-05
 0.31148    3.776e-05
 0.31189    3.669e-05
 0.31230    3.564e-05
 0.31270    3.464e-05
 0.31311    3.367e-05
 0.31352    3.272e-05
 0.31393    3.180e-05
 0.31434    3.091e-05
 0.31475    3.003e-05
 0.31516    2.918e-05
 0.31557    2.834e-05
 0.31598    2.754e-05
 0.31639    2.675e-05
 0.31680    2.599e-05
 0.31721    2.525e-05
 0.31762    2.454e-05
 0.31803    2.384e-05
 0.31844    2.317e-05
 0.31885    2.251e-05
 0.31926    2.187e-05
 0.31967    2.124e-05
 0.32008    2.063e-05
 0.32049    2.004e-05
 0.32090    1.947e-05
 0.32131    1.892e-05
 0.32172    1.838e-05
 0.32213    1.786e-05
 0.32254    1.735e-05
 0.32295    1.685e-05
 0.32336    1.637e-05
 0.32377    1.590e-05
 0.32418    1.545e-05
 0.32459    1.501e-05
 0.32500    1.458e-05
 0.32541    1.417e-05
 0.32582    1.376e-05
 0.32623    1.337e-05
 0.32664    1.298e-05
 0.32705    1.261e-05
 0.32746    1.226e-05
 0.32787    1.191e-05
 0.32828    1.157e-05
 0.32869    1.124e-05
 0.32910    1.092e-05
 0.32951    1.061e-05
 0.32992    1.030e-05
 0.33033    1.001e-05
 0.33074    9.727e-06
 0.33115    9.451e-06
 0.33156    9.184e-06
 0.33197    8.923e-06
 0.33238    8.668e-06
 0.33279    8.421e-06
 0.33320    8.180e-06
 0.33361    7.945e-06
 0.33402    7.717e-06
 0.33443    7.496e-06
 0.33484    7.280e-06
 0.33525    7.075e-06
 0.33566    6.875e-06
 0.33607    6.681e-06
 0.33648    6.491e-06
 0.33689    6.307e-06
 0.33730    6.127e-06
 0.33770    5.952e-06
 0.33811    5.780e-06
 0.33852    5.618e-06
 0.33893    5.462e-06
 0.33934    5.309e-06
 0.33975    5.161e-06
 0.34016    5.015e-06
 0.34057    4.874e-06
 0.34098    4.736e-06
 0.34139    4.601e-06
 0.34180    4.470e-06
 0.34221    4.342e-06
 0.34262    4.218e-06
 0.34303    4.097e-06
 0.34344    3.979e-06
 0.34385    3.864e-06
 0.34426    3.758e-06
 0.34467    3.654e-06
 0.34508    3.553e-06
 0.34549    3.454e-06
 0.34590    3.357e-06
 0.34631    3.263e-06
 0.34672    3.171e-06
 0.34713    3.082e-06
 0.34754    2.995e-06
 0.34795    2.910e-06
 0.34836    2.827e-06
 0.34877    2.746e-06
 0.34918    2.667e-06
 0.34959    2.591e-06
 0.35000    2.516e-06
 0.35041    2.448e-06
 0.35082    2.381e-06
 0.35123    2.315e-06
 0.35164    2.251e-06
 0.35205    2.189e-06
 0.35246    2.128e-06
 0.35287    2.069e-06
 0.35328    2.011e-06
 0.35369    1.954e-06
 0.35410    1.899e-06
 0.35451    1.846e-06
 0.35492    1.793e-06
 0.35533    1.743e-06
 0.35574    1.693e-06
 0.35615    1.645e-06
 0.35656    1.598e-06
 0.35697    1.555e-06
 0.35738    1.513e-06
 0.35779    1.472e-06
 0.35820    1.431e-06
 0.35861    1.392e-06
 0.35902    1.354e-06
 0.35943    1.316e-06
 0.35984    1.280e-06
 0.36025    1.244e-06
 0.36066    1.210e-06
 0.36107    1.176e-06
 0.36148    1.143e-06
 0.36189    1.111e-06
 0.36230    1.079e-06
 0.36270    1.049e-06
 0.36311    1.019e-06
 0.36352    9.915e-07
 0.36393    9.648e-07
 0.36434    9.387e-07
 0.36475    9.131e-07
 0.36516    8.883e-07
 0.36557    8.641e-07
 0.36598    8.404e-07
 0.36639    8.173e-07
 0.36680    7.948e-07
 0.36721    7.729e-07
 0.36762    7.516e-07
 0.36803    7.308e-07
 0.36844    7.106e-07
 0.36885    6.909e-07
 0.36926    6.717e-07
 0.36967    6.532e-07
 0.37008    6.351e-07
 0.37049    6.179e-07
