# 1) Radius of the zone in units of one solar radius
# 2) Fraction of pp neutrinos produced in the zone
 0.00041    3.852e-07
 0.00082    1.120e-06
 0.00123    1.857e-06
 0.00164    2.871e-06
 0.00205    4.282e-06
 0.00246    5.975e-06
 0.00287    7.949e-06
 0.00328    1.020e-05
 0.00369    1.274e-05
 0.00410    1.556e-05
 0.00451    1.866e-05
 0.00492    2.203e-05
 0.00533    2.569e-05
 0.00574    2.963e-05
 0.00615    3.384e-05
 0.00656    3.833e-05
 0.00697    4.310e-05
 0.00738    4.815e-05
 0.00779    5.347e-05
 0.00820    5.907e-05
 0.00861    6.494e-05
 0.00902    7.109e-05
 0.00943    7.751e-05
 0.00984    8.420e-05
 0.01025    9.116e-05
 0.01066    9.839e-05
 0.01107    1.059e-04
 0.01148    1.137e-04
 0.01189    1.217e-04
 0.01230    1.300e-04
 0.01270    1.386e-04
 0.01311    1.474e-04
 0.01352    1.565e-04
 0.01393    1.658e-04
 0.01434    1.755e-04
 0.01475    1.853e-04
 0.01516    1.955e-04
 0.01557    2.058e-04
 0.01598    2.165e-04
 0.01639    2.274e-04
 0.01680    2.385e-04
 0.01721    2.499e-04
 0.01762    2.615e-04
 0.01803    2.734e-04
 0.01844    2.856e-04
 0.01885    2.979e-04
 0.01926    3.105e-04
 0.01967    3.234e-04
 0.02008    3.365e-04
 0.02049    3.498e-04
 0.02090    3.633e-04
 0.02131    3.771e-04
 0.02172    3.911e-04
 0.02213    4.054e-04
 0.02254    4.198e-04
 0.02295    4.345e-04
 0.02336    4.494e-04
 0.02377    4.645e-04
 0.02418    4.798e-04
 0.02459    4.954e-04
 0.02500    5.111e-04
 0.02541    5.271e-04
 0.02582    5.433e-04
 0.02623    5.596e-04
 0.02664    5.762e-04
 0.02705    5.929e-04
 0.02746    6.099e-04
 0.02787    6.270e-04
 0.02828    6.444e-04
 0.02869    6.619e-04
 0.02910    6.796e-04
 0.02951    6.974e-04
 0.02992    7.155e-04
 0.03033    7.337e-04
 0.03074    7.521e-04
 0.03115    7.707e-04
 0.03156    7.893e-04
 0.03197    8.082e-04
 0.03238    8.273e-04
 0.03279    8.465e-04
 0.03320    8.658e-04
 0.03361    8.853e-04
 0.03402    9.048e-04
 0.03443    9.246e-04
 0.03484    9.445e-04
 0.03525    9.645e-04
 0.03566    9.847e-04
 0.03607    1.005e-03
 0.03648    1.025e-03
 0.03689    1.046e-03
 0.03730    1.066e-03
 0.03770    1.087e-03
 0.03811    1.108e-03
 0.03852    1.129e-03
 0.03893    1.150e-03
 0.03934    1.171e-03
 0.03975    1.192e-03
 0.04016    1.214e-03
 0.04057    1.235e-03
 0.04098    1.256e-03
 0.04139    1.278e-03
 0.04180    1.300e-03
 0.04221    1.321e-03
 0.04262    1.343e-03
 0.04303    1.365e-03
 0.04344    1.387e-03
 0.04385    1.409e-03
 0.04426    1.430e-03
 0.04467    1.452e-03
 0.04508    1.474e-03
 0.04549    1.496e-03
 0.04590    1.519e-03
 0.04631    1.541e-03
 0.04672    1.563e-03
 0.04713    1.585e-03
 0.04754    1.607e-03
 0.04795    1.629e-03
 0.04836    1.651e-03
 0.04877    1.673e-03
 0.04918    1.695e-03
 0.04959    1.717e-03
 0.05000    1.740e-03
 0.05041    1.762e-03
 0.05082    1.784e-03
 0.05123    1.806e-03
 0.05164    1.828e-03
 0.05205    1.850e-03
 0.05246    1.872e-03
 0.05287    1.893e-03
 0.05328    1.915e-03
 0.05369    1.937e-03
 0.05410    1.959e-03
 0.05451    1.980e-03
 0.05492    2.002e-03
 0.05533    2.023e-03
 0.05574    2.045e-03
 0.05615    2.066e-03
 0.05656    2.088e-03
 0.05697    2.109e-03
 0.05738    2.130e-03
 0.05779    2.151e-03
 0.05820    2.172e-03
 0.05861    2.192e-03
 0.05902    2.213e-03
 0.05943    2.234e-03
 0.05984    2.254e-03
 0.06025    2.275e-03
 0.06066    2.295e-03
 0.06107    2.315e-03
 0.06148    2.335e-03
 0.06189    2.355e-03
 0.06230    2.375e-03
 0.06270    2.394e-03
 0.06311    2.414e-03
 0.06352    2.433e-03
 0.06393    2.452e-03
 0.06434    2.471e-03
 0.06475    2.490e-03
 0.06516    2.509e-03
 0.06557    2.527e-03
 0.06598    2.545e-03
 0.06639    2.564e-03
 0.06680    2.582e-03
 0.06721    2.599e-03
 0.06762    2.617e-03
 0.06803    2.635e-03
 0.06844    2.652e-03
 0.06885    2.669e-03
 0.06926    2.686e-03
 0.06967    2.703e-03
 0.07008    2.719e-03
 0.07049    2.736e-03
 0.07090    2.752e-03
 0.07131    2.768e-03
 0.07172    2.784e-03
 0.07213    2.799e-03
 0.07254    2.815e-03
 0.07295    2.830e-03
 0.07336    2.845e-03
 0.07377    2.859e-03
 0.07418    2.874e-03
 0.07459    2.888e-03
 0.07500    2.902e-03
 0.07541    2.916e-03
 0.07582    2.930e-03
 0.07623    2.943e-03
 0.07664    2.956e-03
 0.07705    2.969e-03
 0.07746    2.982e-03
 0.07787    2.994e-03
 0.07828    3.007e-03
 0.07869    3.019e-03
 0.07910    3.031e-03
 0.07951    3.042e-03
 0.07992    3.053e-03
 0.08033    3.064e-03
 0.08074    3.075e-03
 0.08115    3.086e-03
 0.08156    3.096e-03
 0.08197    3.106e-03
 0.08238    3.116e-03
 0.08279    3.126e-03
 0.08320    3.135e-03
 0.08361    3.144e-03
 0.08402    3.153e-03
 0.08443    3.162e-03
 0.08484    3.170e-03
 0.08525    3.179e-03
 0.08566    3.186e-03
 0.08607    3.194e-03
 0.08648    3.202e-03
 0.08689    3.209e-03
 0.08730    3.216e-03
 0.08770    3.222e-03
 0.08811    3.229e-03
 0.08852    3.235e-03
 0.08893    3.241e-03
 0.08934    3.247e-03
 0.08975    3.252e-03
 0.09016    3.257e-03
 0.09057    3.262e-03
 0.09098    3.267e-03
 0.09139    3.271e-03
 0.09180    3.275e-03
 0.09221    3.279e-03
 0.09262    3.283e-03
 0.09303    3.287e-03
 0.09344    3.290e-03
 0.09385    3.293e-03
 0.09426    3.296e-03
 0.09467    3.298e-03
 0.09508    3.300e-03
 0.09549    3.302e-03
 0.09590    3.304e-03
 0.09631    3.306e-03
 0.09672    3.307e-03
 0.09713    3.308e-03
 0.09754    3.309e-03
 0.09795    3.310e-03
 0.09836    3.310e-03
 0.09877    3.310e-03
 0.09918    3.310e-03
 0.09959    3.310e-03
 0.10000    3.309e-03
 0.10041    3.308e-03
 0.10082    3.307e-03
 0.10123    3.306e-03
 0.10164    3.305e-03
 0.10205    3.303e-03
 0.10246    3.301e-03
 0.10287    3.299e-03
 0.10328    3.297e-03
 0.10369    3.294e-03
 0.10410    3.292e-03
 0.10451    3.289e-03
 0.10492    3.286e-03
 0.10533    3.282e-03
 0.10574    3.279e-03
 0.10615    3.275e-03
 0.10656    3.271e-03
 0.10697    3.267e-03
 0.10738    3.262e-03
 0.10779    3.258e-03
 0.10820    3.253e-03
 0.10861    3.248e-03
 0.10902    3.243e-03
 0.10943    3.238e-03
 0.10984    3.232e-03
 0.11025    3.227e-03
 0.11066    3.221e-03
 0.11107    3.215e-03
 0.11148    3.208e-03
 0.11189    3.202e-03
 0.11230    3.195e-03
 0.11270    3.189e-03
 0.11311    3.182e-03
 0.11352    3.175e-03
 0.11393    3.167e-03
 0.11434    3.160e-03
 0.11475    3.152e-03
 0.11516    3.145e-03
 0.11557    3.137e-03
 0.11598    3.129e-03
 0.11639    3.120e-03
 0.11680    3.112e-03
 0.11721    3.104e-03
 0.11762    3.095e-03
 0.11803    3.086e-03
 0.11844    3.077e-03
 0.11885    3.068e-03
 0.11926    3.059e-03
 0.11967    3.050e-03
 0.12008    3.040e-03
 0.12049    3.030e-03
 0.12090    3.021e-03
 0.12131    3.011e-03
 0.12172    3.001e-03
 0.12213    2.991e-03
 0.12254    2.980e-03
 0.12295    2.970e-03
 0.12336    2.960e-03
 0.12377    2.949e-03
 0.12418    2.938e-03
 0.12459    2.927e-03
 0.12500    2.917e-03
 0.12541    2.906e-03
 0.12582    2.895e-03
 0.12623    2.883e-03
 0.12664    2.872e-03
 0.12705    2.861e-03
 0.12746    2.849e-03
 0.12787    2.837e-03
 0.12828    2.826e-03
 0.12869    2.814e-03
 0.12910    2.802e-03
 0.12951    2.790e-03
 0.12992    2.778e-03
 0.13033    2.766e-03
 0.13074    2.754e-03
 0.13115    2.742e-03
 0.13156    2.729e-03
 0.13197    2.717e-03
 0.13238    2.704e-03
 0.13279    2.692e-03
 0.13320    2.679e-03
 0.13361    2.666e-03
 0.13402    2.654e-03
 0.13443    2.641e-03
 0.13484    2.628e-03
 0.13525    2.615e-03
 0.13566    2.602e-03
 0.13607    2.589e-03
 0.13648    2.576e-03
 0.13689    2.563e-03
 0.13730    2.550e-03
 0.13770    2.537e-03
 0.13811    2.524e-03
 0.13852    2.510e-03
 0.13893    2.497e-03
 0.13934    2.484e-03
 0.13975    2.470e-03
 0.14016    2.457e-03
 0.14057    2.443e-03
 0.14098    2.430e-03
 0.14139    2.416e-03
 0.14180    2.403e-03
 0.14221    2.389e-03
 0.14262    2.376e-03
 0.14303    2.362e-03
 0.14344    2.348e-03
 0.14385    2.335e-03
 0.14426    2.321e-03
 0.14467    2.308e-03
 0.14508    2.294e-03
 0.14549    2.280e-03
 0.14590    2.267e-03
 0.14631    2.253e-03
 0.14672    2.239e-03
 0.14713    2.225e-03
 0.14754    2.212e-03
 0.14795    2.198e-03
 0.14836    2.184e-03
 0.14877    2.171e-03
 0.14918    2.157e-03
 0.14959    2.143e-03
 0.15000    2.129e-03
 0.15041    2.116e-03
 0.15082    2.102e-03
 0.15123    2.088e-03
 0.15164    2.075e-03
 0.15205    2.061e-03
 0.15246    2.048e-03
 0.15287    2.034e-03
 0.15328    2.020e-03
 0.15369    2.007e-03
 0.15410    1.993e-03
 0.15451    1.980e-03
 0.15492    1.966e-03
 0.15533    1.953e-03
 0.15574    1.939e-03
 0.15615    1.926e-03
 0.15656    1.912e-03
 0.15697    1.899e-03
 0.15738    1.886e-03
 0.15779    1.872e-03
 0.15820    1.859e-03
 0.15861    1.846e-03
 0.15902    1.832e-03
 0.15943    1.819e-03
 0.15984    1.806e-03
 0.16025    1.793e-03
 0.16066    1.780e-03
 0.16107    1.767e-03
 0.16148    1.754e-03
 0.16189    1.741e-03
 0.16230    1.728e-03
 0.16270    1.715e-03
 0.16311    1.702e-03
 0.16352    1.689e-03
 0.16393    1.676e-03
 0.16434    1.663e-03
 0.16475    1.651e-03
 0.16516    1.638e-03
 0.16557    1.625e-03
 0.16598    1.613e-03
 0.16639    1.600e-03
 0.16680    1.588e-03
 0.16721    1.575e-03
 0.16762    1.563e-03
 0.16803    1.551e-03
 0.16844    1.538e-03
 0.16885    1.526e-03
 0.16926    1.514e-03
 0.16967    1.502e-03
 0.17008    1.490e-03
 0.17049    1.478e-03
 0.17090    1.466e-03
 0.17131    1.454e-03
 0.17172    1.442e-03
 0.17213    1.430e-03
 0.17254    1.418e-03
 0.17295    1.407e-03
 0.17336    1.395e-03
 0.17377    1.383e-03
 0.17418    1.372e-03
 0.17459    1.360e-03
 0.17500    1.349e-03
 0.17541    1.338e-03
 0.17582    1.326e-03
 0.17623    1.315e-03
 0.17664    1.304e-03
 0.17705    1.293e-03
 0.17746    1.282e-03
 0.17787    1.271e-03
 0.17828    1.260e-03
 0.17869    1.249e-03
 0.17910    1.238e-03
 0.17951    1.227e-03
 0.17992    1.216e-03
 0.18033    1.206e-03
 0.18074    1.195e-03
 0.18115    1.185e-03
 0.18156    1.174e-03
 0.18197    1.164e-03
 0.18238    1.153e-03
 0.18279    1.143e-03
 0.18320    1.133e-03
 0.18361    1.123e-03
 0.18402    1.113e-03
 0.18443    1.103e-03
 0.18484    1.093e-03
 0.18525    1.083e-03
 0.18566    1.073e-03
 0.18607    1.063e-03
 0.18648    1.053e-03
 0.18689    1.044e-03
 0.18730    1.034e-03
 0.18770    1.024e-03
 0.18811    1.015e-03
 0.18852    1.006e-03
 0.18893    9.962e-04
 0.18934    9.869e-04
 0.18975    9.776e-04
 0.19016    9.685e-04
 0.19057    9.594e-04
 0.19098    9.503e-04
 0.19139    9.413e-04
 0.19180    9.324e-04
 0.19221    9.235e-04
 0.19262    9.148e-04
 0.19303    9.060e-04
 0.19344    8.973e-04
 0.19385    8.887e-04
 0.19426    8.802e-04
 0.19467    8.717e-04
 0.19508    8.633e-04
 0.19549    8.549e-04
 0.19590    8.466e-04
 0.19631    8.384e-04
 0.19672    8.302e-04
 0.19713    8.221e-04
 0.19754    8.140e-04
 0.19795    8.060e-04
 0.19836    7.981e-04
 0.19877    7.902e-04
 0.19918    7.824e-04
 0.19959    7.746e-04
 0.20000    7.669e-04
 0.20041    7.593e-04
 0.20082    7.517e-04
 0.20123    7.442e-04
 0.20164    7.368e-04
 0.20205    7.293e-04
 0.20246    7.220e-04
 0.20287    7.147e-04
 0.20328    7.075e-04
 0.20369    7.003e-04
 0.20410    6.932e-04
 0.20451    6.861e-04
 0.20492    6.792e-04
 0.20533    6.722e-04
 0.20574    6.653e-04
 0.20615    6.585e-04
 0.20656    6.518e-04
 0.20697    6.450e-04
 0.20738    6.384e-04
 0.20779    6.318e-04
 0.20820    6.253e-04
 0.20861    6.188e-04
 0.20902    6.123e-04
 0.20943    6.060e-04
 0.20984    5.997e-04
 0.21025    5.934e-04
 0.21066    5.872e-04
 0.21107    5.810e-04
 0.21148    5.749e-04
 0.21189    5.688e-04
 0.21230    5.628e-04
 0.21270    5.569e-04
 0.21311    5.510e-04
 0.21352    5.451e-04
 0.21393    5.394e-04
 0.21434    5.336e-04
 0.21475    5.279e-04
 0.21516    5.223e-04
 0.21557    5.167e-04
 0.21598    5.112e-04
 0.21639    5.057e-04
 0.21680    5.002e-04
 0.21721    4.949e-04
 0.21762    4.895e-04
 0.21803    4.842e-04
 0.21844    4.790e-04
 0.21885    4.738e-04
 0.21926    4.686e-04
 0.21967    4.636e-04
 0.22008    4.585e-04
 0.22049    4.535e-04
 0.22090    4.486e-04
 0.22131    4.436e-04
 0.22172    4.388e-04
 0.22213    4.340e-04
 0.22254    4.292e-04
 0.22295    4.245e-04
 0.22336    4.198e-04
 0.22377    4.151e-04
 0.22418    4.105e-04
 0.22459    4.060e-04
 0.22500    4.015e-04
 0.22541    3.970e-04
 0.22582    3.926e-04
 0.22623    3.882e-04
 0.22664    3.839e-04
 0.22705    3.796e-04
 0.22746    3.754e-04
 0.22787    3.711e-04
 0.22828    3.670e-04
 0.22869    3.629e-04
 0.22910    3.588e-04
 0.22951    3.547e-04
 0.22992    3.507e-04
 0.23033    3.468e-04
 0.23074    3.428e-04
 0.23115    3.390e-04
 0.23156    3.351e-04
 0.23197    3.313e-04
 0.23238    3.275e-04
 0.23279    3.238e-04
 0.23320    3.201e-04
 0.23361    3.164e-04
 0.23402    3.128e-04
 0.23443    3.092e-04
 0.23484    3.057e-04
 0.23525    3.022e-04
 0.23566    2.987e-04
 0.23607    2.953e-04
 0.23648    2.919e-04
 0.23689    2.885e-04
 0.23730    2.852e-04
 0.23770    2.819e-04
 0.23811    2.786e-04
 0.23852    2.754e-04
 0.23893    2.722e-04
 0.23934    2.690e-04
 0.23975    2.659e-04
 0.24016    2.628e-04
 0.24057    2.598e-04
 0.24098    2.567e-04
 0.24139    2.537e-04
 0.24180    2.507e-04
 0.24221    2.478e-04
 0.24262    2.449e-04
 0.24303    2.420e-04
 0.24344    2.392e-04
 0.24385    2.363e-04
 0.24426    2.336e-04
 0.24467    2.308e-04
 0.24508    2.281e-04
 0.24549    2.254e-04
 0.24590    2.227e-04
 0.24631    2.201e-04
 0.24672    2.175e-04
 0.24713    2.149e-04
 0.24754    2.124e-04
 0.24795    2.098e-04
 0.24836    2.073e-04
 0.24877    2.049e-04
 0.24918    2.024e-04
 0.24959    2.000e-04
 0.25000    1.976e-04
 0.25041    1.952e-04
 0.25082    1.929e-04
 0.25123    1.906e-04
 0.25164    1.883e-04
 0.25205    1.860e-04
 0.25246    1.838e-04
 0.25287    1.816e-04
 0.25328    1.794e-04
 0.25369    1.772e-04
 0.25410    1.751e-04
 0.25451    1.730e-04
 0.25492    1.709e-04
 0.25533    1.688e-04
 0.25574    1.668e-04
 0.25615    1.648e-04
 0.25656    1.628e-04
 0.25697    1.608e-04
 0.25738    1.588e-04
 0.25779    1.569e-04
 0.25820    1.550e-04
 0.25861    1.531e-04
 0.25902    1.512e-04
 0.25943    1.494e-04
 0.25984    1.475e-04
 0.26025    1.458e-04
 0.26066    1.440e-04
 0.26107    1.422e-04
 0.26148    1.405e-04
 0.26189    1.387e-04
 0.26230    1.370e-04
 0.26270    1.353e-04
 0.26311    1.337e-04
 0.26352    1.320e-04
 0.26393    1.304e-04
 0.26434    1.288e-04
 0.26475    1.272e-04
 0.26516    1.256e-04
 0.26557    1.241e-04
 0.26598    1.226e-04
 0.26639    1.210e-04
 0.26680    1.195e-04
 0.26721    1.181e-04
 0.26762    1.166e-04
 0.26803    1.151e-04
 0.26844    1.137e-04
 0.26885    1.123e-04
 0.26926    1.109e-04
 0.26967    1.095e-04
 0.27008    1.082e-04
 0.27049    1.068e-04
 0.27090    1.055e-04
 0.27131    1.042e-04
 0.27172    1.029e-04
 0.27213    1.016e-04
 0.27254    1.003e-04
 0.27295    9.905e-05
 0.27336    9.780e-05
 0.27377    9.658e-05
 0.27418    9.536e-05
 0.27459    9.417e-05
 0.27500    9.298e-05
 0.27541    9.181e-05
 0.27582    9.067e-05
 0.27623    8.953e-05
 0.27664    8.840e-05
 0.27705    8.729e-05
 0.27746    8.619e-05
 0.27787    8.509e-05
 0.27828    8.402e-05
 0.27869    8.296e-05
 0.27910    8.191e-05
 0.27951    8.088e-05
 0.27992    7.986e-05
 0.28033    7.885e-05
 0.28074    7.785e-05
 0.28115    7.686e-05
 0.28156    7.589e-05
 0.28197    7.493e-05
 0.28238    7.397e-05
 0.28279    7.303e-05
 0.28320    7.210e-05
 0.28361    7.119e-05
 0.28402    7.029e-05
 0.28443    6.939e-05
 0.28484    6.851e-05
 0.28525    6.764e-05
 0.28566    6.678e-05
 0.28607    6.592e-05
 0.28648    6.508e-05
 0.28689    6.425e-05
 0.28730    6.343e-05
 0.28770    6.262e-05
 0.28811    6.182e-05
 0.28852    6.103e-05
 0.28893    6.025e-05
 0.28934    5.948e-05
 0.28975    5.872e-05
 0.29016    5.797e-05
 0.29057    5.723e-05
 0.29098    5.649e-05
 0.29139    5.577e-05
 0.29180    5.505e-05
 0.29221    5.434e-05
 0.29262    5.364e-05
 0.29303    5.296e-05
 0.29344    5.227e-05
 0.29385    5.161e-05
 0.29426    5.094e-05
 0.29467    5.029e-05
 0.29508    4.964e-05
 0.29549    4.899e-05
 0.29590    4.837e-05
 0.29631    4.774e-05
 0.29672    4.712e-05
 0.29713    4.652e-05
 0.29754    4.592e-05
 0.29795    4.532e-05
 0.29836    4.474e-05
 0.29877    4.416e-05
 0.29918    4.359e-05
 0.29959    4.303e-05
 0.30000    4.247e-05
 0.30041    4.192e-05
 0.30082    4.138e-05
 0.30123    4.084e-05
 0.30164    4.031e-05
 0.30205    3.979e-05
 0.30246    3.927e-05
 0.30287    3.876e-05
 0.30328    3.826e-05
 0.30369    3.776e-05
 0.30410    3.727e-05
 0.30451    3.679e-05
 0.30492    3.631e-05
 0.30533    3.584e-05
 0.30574    3.537e-05
 0.30615    3.491e-05
 0.30656    3.446e-05
 0.30697    3.401e-05
 0.30738    3.357e-05
 0.30779    3.313e-05
 0.30820    3.270e-05
 0.30861    3.227e-05
 0.30902    3.185e-05
 0.30943    3.144e-05
 0.30984    3.103e-05
 0.31025    3.062e-05
 0.31066    3.022e-05
 0.31107    2.983e-05
 0.31148    2.944e-05
 0.31189    2.905e-05
 0.31230    2.867e-05
 0.31270    2.830e-05
 0.31311    2.793e-05
 0.31352    2.756e-05
 0.31393    2.720e-05
 0.31434    2.685e-05
 0.31475    2.650e-05
 0.31516    2.615e-05
 0.31557    2.580e-05
 0.31598    2.547e-05
 0.31639    2.513e-05
 0.31680    2.480e-05
 0.31721    2.448e-05
 0.31762    2.416e-05
 0.31803    2.384e-05
 0.31844    2.353e-05
 0.31885    2.322e-05
 0.31926    2.291e-05
 0.31967    2.261e-05
 0.32008    2.231e-05
 0.32049    2.202e-05
 0.32090    2.173e-05
 0.32131    2.145e-05
 0.32172    2.117e-05
 0.32213    2.089e-05
 0.32254    2.061e-05
 0.32295    2.034e-05
 0.32336    2.007e-05
 0.32377    1.981e-05
 0.32418    1.955e-05
 0.32459    1.929e-05
 0.32500    1.904e-05
 0.32541    1.879e-05
 0.32582    1.854e-05
 0.32623    1.830e-05
 0.32664    1.805e-05
 0.32705    1.782e-05
 0.32746    1.758e-05
 0.32787    1.735e-05
 0.32828    1.712e-05
 0.32869    1.689e-05
 0.32910    1.667e-05
 0.32951    1.645e-05
 0.32992    1.623e-05
 0.33033    1.602e-05
 0.33074    1.581e-05
 0.33115    1.560e-05
 0.33156    1.539e-05
 0.33197    1.519e-05
 0.33238    1.499e-05
 0.33279    1.479e-05
 0.33320    1.460e-05
 0.33361    1.440e-05
 0.33402    1.421e-05
 0.33443    1.402e-05
 0.33484    1.384e-05
 0.33525    1.365e-05
 0.33566    1.347e-05
 0.33607    1.330e-05
 0.33648    1.312e-05
 0.33689    1.295e-05
 0.33730    1.278e-05
 0.33770    1.261e-05
 0.33811    1.244e-05
 0.33852    1.227e-05
 0.33893    1.211e-05
 0.33934    1.195e-05
 0.33975    1.179e-05
 0.34016    1.164e-05
 0.34057    1.148e-05
 0.34098    1.133e-05
 0.34139    1.118e-05
 0.34180    1.103e-05
 0.34221    1.089e-05
 0.34262    1.074e-05
 0.34303    1.060e-05
 0.34344    1.046e-05
 0.34385    1.032e-05
 0.34426    1.018e-05
 0.34467    1.004e-05
 0.34508    9.913e-06
 0.34549    9.782e-06
 0.34590    9.652e-06
 0.34631    9.524e-06
 0.34672    9.397e-06
 0.34713    9.273e-06
 0.34754    9.150e-06
 0.34795    9.029e-06
 0.34836    8.909e-06
 0.34877    8.790e-06
 0.34918    8.673e-06
 0.34959    8.558e-06
 0.35000    8.441e-06
 0.35041    8.329e-06
 0.35082    8.219e-06
 0.35123    8.110e-06
 0.35164    8.003e-06
 0.35205    7.897e-06
 0.35246    7.793e-06
 0.35287    7.689e-06
 0.35328    7.587e-06
 0.35369    7.486e-06
 0.35410    7.387e-06
 0.35451    7.289e-06
 0.35492    7.192e-06
 0.35533    7.096e-06
 0.35574    7.001e-06
 0.35615    6.907e-06
 0.35656    6.813e-06
 0.35697    6.723e-06
 0.35738    6.634e-06
 0.35779    6.546e-06
 0.35820    6.459e-06
 0.35861    6.374e-06
 0.35902    6.290e-06
 0.35943    6.206e-06
 0.35984    6.124e-06
 0.36025    6.042e-06
 0.36066    5.962e-06
 0.36107    5.882e-06
 0.36148    5.804e-06
 0.36189    5.727e-06
 0.36230    5.650e-06
 0.36270    5.574e-06
 0.36311    5.498e-06
 0.36352    5.425e-06
 0.36393    5.353e-06
 0.36434    5.282e-06
 0.36475    5.212e-06
 0.36516    5.143e-06
 0.36557    5.075e-06
 0.36598    5.008e-06
 0.36639    4.941e-06
 0.36680    4.875e-06
 0.36721    4.810e-06
 0.36762    4.746e-06
 0.36803    4.683e-06
 0.36844    4.621e-06
 0.36885    4.559e-06
 0.36926    4.498e-06
 0.36967    4.438e-06
 0.37008    4.378e-06
 0.37049    4.320e-06
